nSeq,I1,I2,O1,O2,A3
0,0,0,0,0,426
1,0,0,0,0,427
2,0,0,0,0,426
3,0,0,0,0,426
4,0,0,0,0,426
5,0,0,0,0,426
6,0,0,0,0,426
7,0,0,0,0,426
8,0,0,0,0,426
9,0,0,0,0,426
10,0,0,0,0,426
11,0,0,0,0,426
12,0,0,0,0,426
13,0,0,0,0,426
14,0,0,0,0,426
15,0,0,0,0,426
0,0,0,0,0,426
1,0,0,0,0,426
2,0,0,0,0,426
3,0,0,0,0,426
4,0,0,0,0,425
5,0,0,0,0,426
6,0,0,0,0,425
7,0,0,0,0,425
8,0,0,0,0,425
9,0,0,0,0,426
10,0,0,0,0,425
11,0,0,0,0,425
12,0,0,0,0,425
13,0,0,0,0,425
14,0,0,0,0,425
15,0,0,0,0,425
0,0,0,0,0,425
1,0,0,0,0,425
2,0,0,0,0,425
3,0,0,0,0,425
4,0,0,0,0,425
5,0,0,0,0,425
6,0,0,0,0,425
7,0,0,0,0,425
8,0,0,0,0,425
9,0,0,0,0,425
10,0,0,0,0,425
11,0,0,0,0,425
12,0,0,0,0,425
13,0,0,0,0,425
14,0,0,0,0,425
15,0,0,0,0,425
0,0,0,0,0,425
1,0,0,0,0,425
2,0,0,0,0,425
3,0,0,0,0,425
4,0,0,0,0,425
5,0,0,0,0,425
6,0,0,0,0,425
7,0,0,0,0,425
8,0,0,0,0,425
9,0,0,0,0,425
10,0,0,0,0,425
11,0,0,0,0,425
12,0,0,0,0,425
13,0,0,0,0,425
14,0,0,0,0,424
15,0,0,0,0,424
0,0,0,0,0,424
1,0,0,0,0,424
2,0,0,0,0,424
3,0,0,0,0,424
4,0,0,0,0,424
5,0,0,0,0,425
6,0,0,0,0,424
7,0,0,0,0,424
8,0,0,0,0,424
9,0,0,0,0,424
10,0,0,0,0,424
11,0,0,0,0,424
12,0,0,0,0,424
13,0,0,0,0,424
14,0,0,0,0,424
15,0,0,0,0,424
0,0,0,0,0,424
1,0,0,0,0,424
2,0,0,0,0,424
3,0,0,0,0,424
4,0,0,0,0,424
5,0,0,0,0,425
6,0,0,0,0,424
7,0,0,0,0,424
8,0,0,0,0,425
9,0,0,0,0,425
10,0,0,0,0,424
11,0,0,0,0,425
12,0,0,0,0,425
13,0,0,0,0,425
14,0,0,0,0,425
15,0,0,0,0,425
0,0,0,0,0,425
1,0,0,0,0,425
2,0,0,0,0,425
3,0,0,0,0,425
4,0,0,0,0,425
5,0,0,0,0,425
6,0,0,0,0,425
7,0,0,0,0,425
8,0,0,0,0,425
9,0,0,0,0,425
10,0,0,0,0,425
11,0,0,0,0,425
12,0,0,0,0,425
13,0,0,0,0,426
14,0,0,0,0,425
15,0,0,0,0,426
0,0,0,0,0,426
1,0,0,0,0,426
2,0,0,0,0,426
3,0,0,0,0,426
4,0,0,0,0,426
5,0,0,0,0,427
6,0,0,0,0,427
7,0,0,0,0,427
8,0,0,0,0,427
9,0,0,0,0,427
10,0,0,0,0,427
11,0,0,0,0,427
12,0,0,0,0,427
13,0,0,0,0,427
14,0,0,0,0,427
15,0,0,0,0,427
0,0,0,0,0,428
1,0,0,0,0,428
2,0,0,0,0,427
3,0,0,0,0,428
4,0,0,0,0,428
5,0,0,0,0,428
6,0,0,0,0,428
7,0,0,0,0,428
8,0,0,0,0,428
9,0,0,0,0,428
10,0,0,0,0,428
11,0,0,0,0,428
12,0,0,0,0,428
13,0,0,0,0,428
14,0,0,0,0,429
15,0,0,0,0,429
0,0,0,0,0,429
1,0,0,0,0,429
2,0,0,0,0,429
3,0,0,0,0,429
4,0,0,0,0,429
5,0,0,0,0,430
6,0,0,0,0,429
7,0,0,0,0,429
8,0,0,0,0,429
9,0,0,0,0,430
10,0,0,0,0,430
11,0,0,0,0,430
12,0,0,0,0,430
13,0,0,0,0,430
14,0,0,0,0,430
15,0,0,0,0,430
0,0,0,0,0,430
1,0,0,0,0,430
2,0,0,0,0,430
3,0,0,0,0,430
4,0,0,0,0,431
5,0,0,0,0,431
6,0,0,0,0,431
7,0,0,0,0,431
8,0,0,0,0,431
9,0,0,0,0,431
10,0,0,0,0,431
11,0,0,0,0,431
12,0,0,0,0,431
13,0,0,0,0,431
14,0,0,0,0,431
15,0,0,0,0,431
0,0,0,0,0,431
1,0,0,0,0,431
2,0,0,0,0,431
3,0,0,0,0,431
4,0,0,0,0,431
5,0,0,0,0,432
6,0,0,0,0,432
7,0,0,0,0,431
8,0,0,0,0,431
9,0,0,0,0,432
10,0,0,0,0,432
11,0,0,0,0,432
12,0,0,0,0,432
13,0,0,0,0,432
14,0,0,0,0,432
15,0,0,0,0,432
0,0,0,0,0,432
1,0,0,0,0,432
2,0,0,0,0,432
3,0,0,0,0,432
4,0,0,0,0,432
5,0,0,0,0,432
6,0,0,0,0,432
7,0,0,0,0,432
8,0,0,0,0,432
9,0,0,0,0,432
10,0,0,0,0,432
11,0,0,0,0,432
12,0,0,0,0,432
13,0,0,0,0,432
14,0,0,0,0,432
15,0,0,0,0,432
0,0,0,0,0,432
1,0,0,0,0,432
2,0,0,0,0,432
3,0,0,0,0,432
4,0,0,0,0,432
5,0,0,0,0,432
6,0,0,0,0,432
7,0,0,0,0,432
8,0,0,0,0,432
9,0,0,0,0,433
10,0,0,0,0,432
11,0,0,0,0,432
12,0,0,0,0,432
13,0,0,0,0,432
14,0,0,0,0,432
15,0,0,0,0,432
0,0,0,0,0,432
1,0,0,0,0,432
2,0,0,0,0,432
3,0,0,0,0,432
4,0,0,0,0,432
5,0,0,0,0,432
6,0,0,0,0,432
7,0,0,0,0,432
8,0,0,0,0,432
9,0,0,0,0,432
10,0,0,0,0,432
11,0,0,0,0,432
12,0,0,0,0,432
13,0,0,0,0,433
14,0,0,0,0,432
15,0,0,0,0,432
0,0,0,0,0,432
1,0,0,0,0,432
2,0,0,0,0,432
3,0,0,0,0,432
4,0,0,0,0,432
5,0,0,0,0,432
6,0,0,0,0,432
7,0,0,0,0,432
8,0,0,0,0,432
9,0,0,0,0,432
10,0,0,0,0,432
11,0,0,0,0,432
12,0,0,0,0,432
13,0,0,0,0,432
14,0,0,0,0,432
15,0,0,0,0,432
0,0,0,0,0,432
1,0,0,0,0,432
2,0,0,0,0,432
3,0,0,0,0,432
4,0,0,0,0,432
5,0,0,0,0,432
6,0,0,0,0,432
7,0,0,0,0,432
8,0,0,0,0,432
9,0,0,0,0,432
10,0,0,0,0,432
11,0,0,0,0,432
12,0,0,0,0,432
13,0,0,0,0,432
14,0,0,0,0,432
15,0,0,0,0,432
0,0,0,0,0,432
1,0,0,0,0,432
2,0,0,0,0,432
3,0,0,0,0,432
4,0,0,0,0,432
5,0,0,0,0,432
6,0,0,0,0,432
7,0,0,0,0,432
8,0,0,0,0,432
9,0,0,0,0,432
10,0,0,0,0,432
11,0,0,0,0,432
12,0,0,0,0,432
13,0,0,0,0,432
14,0,0,0,0,431
15,0,0,0,0,431
0,0,0,0,0,432
1,0,0,0,0,432
2,0,0,0,0,431
3,0,0,0,0,431
4,0,0,0,0,431
5,0,0,0,0,431
6,0,0,0,0,431
7,0,0,0,0,431
8,0,0,0,0,431
9,0,0,0,0,431
10,0,0,0,0,431
11,0,0,0,0,431
12,0,0,0,0,431
13,0,0,0,0,431
14,0,0,0,0,431
15,0,0,0,0,431
0,0,0,0,0,431
1,0,0,0,0,431
2,0,0,0,0,431
3,0,0,0,0,431
4,0,0,0,0,431
5,0,0,0,0,431
6,0,0,0,0,431
7,0,0,0,0,431
8,0,0,0,0,431
9,0,0,0,0,431
10,0,0,0,0,430
11,0,0,0,0,430
12,0,0,0,0,430
13,0,0,0,0,430
14,0,0,0,0,430
15,0,0,0,0,430
0,0,0,0,0,430
1,0,0,0,0,430
2,0,0,0,0,430
3,0,0,0,0,430
4,0,0,0,0,430
5,0,0,0,0,430
6,0,0,0,0,430
7,0,0,0,0,430
8,0,0,0,0,430
9,0,0,0,0,430
10,0,0,0,0,430
11,0,0,0,0,430
12,0,0,0,0,430
13,0,0,0,0,430
14,0,0,0,0,429
15,0,0,0,0,429
0,0,0,0,0,429
1,0,0,0,0,429
2,0,0,0,0,429
3,0,0,0,0,429
4,0,0,0,0,429
5,0,0,0,0,429
6,0,0,0,0,429
7,0,0,0,0,429
8,0,0,0,0,429
9,0,0,0,0,429
10,0,0,0,0,429
11,0,0,0,0,429
12,0,0,0,0,429
13,0,0,0,0,429
14,0,0,0,0,428
15,0,0,0,0,428
0,0,0,0,0,428
1,0,0,0,0,428
2,0,0,0,0,428
3,0,0,0,0,428
4,0,0,0,0,428
5,0,0,0,0,428
6,0,0,0,0,428
7,0,0,0,0,428
8,0,0,0,0,428
9,0,0,0,0,428
10,0,0,0,0,428
11,0,0,0,0,428
12,0,0,0,0,428
13,0,0,0,0,428
14,0,0,0,0,428
15,0,0,0,0,428
0,0,0,0,0,428
1,0,0,0,0,428
2,0,0,0,0,428
3,0,0,0,0,428
4,0,0,0,0,428
5,0,0,0,0,428
6,0,0,0,0,428
7,0,0,0,0,428
8,0,0,0,0,428
9,0,0,0,0,428
10,0,0,0,0,427
11,0,0,0,0,427
12,0,0,0,0,427
13,0,0,0,0,427
14,0,0,0,0,427
15,0,0,0,0,427
0,0,0,0,0,427
1,0,0,0,0,427
2,0,0,0,0,427
3,0,0,0,0,427
4,0,0,0,0,427
5,0,0,0,0,427
6,0,0,0,0,427
7,0,0,0,0,427
8,0,0,0,0,427
9,0,0,0,0,427
10,0,0,0,0,427
11,0,0,0,0,427
12,0,0,0,0,427
13,0,0,0,0,427
14,0,0,0,0,426
15,0,0,0,0,426
0,0,0,0,0,426
1,0,0,0,0,426
2,0,0,0,0,426
3,0,0,0,0,426
4,0,0,0,0,426
5,0,0,0,0,426
6,0,0,0,0,426
7,0,0,0,0,426
8,0,0,0,0,426
9,0,0,0,0,426
10,0,0,0,0,426
11,0,0,0,0,426
12,0,0,0,0,426
13,0,0,0,0,426
14,0,0,0,0,425
15,0,0,0,0,425
0,0,0,0,0,425
1,0,0,0,0,425
2,0,0,0,0,425
3,0,0,0,0,425
4,0,0,0,0,425
5,0,0,0,0,425
6,0,0,0,0,425
7,0,0,0,0,425
8,0,0,0,0,425
9,0,0,0,0,425
10,0,0,0,0,425
11,0,0,0,0,425
12,0,0,0,0,425
13,0,0,0,0,425
14,0,0,0,0,425
15,0,0,0,0,425
0,0,0,0,0,424
1,0,0,0,0,425
2,0,0,0,0,424
3,0,0,0,0,424
4,0,0,0,0,424
5,0,0,0,0,424
6,0,0,0,0,424
7,0,0,0,0,424
8,0,0,0,0,424
9,0,0,0,0,424
10,0,0,0,0,424
11,0,0,0,0,424
12,0,0,0,0,424
13,0,0,0,0,424
14,0,0,0,0,424
15,0,0,0,0,424
0,0,0,0,0,424
1,0,0,0,0,424
2,0,0,0,0,424
3,0,0,0,0,423
4,0,0,0,0,424
5,0,0,0,0,424
6,0,0,0,0,423
7,0,0,0,0,423
8,0,0,0,0,423
9,0,0,0,0,423
10,0,0,0,0,423
11,0,0,0,0,423
12,0,0,0,0,423
13,0,0,0,0,423
14,0,0,0,0,423
15,0,0,0,0,423
0,0,0,0,0,423
1,0,0,0,0,423
2,0,0,0,0,423
3,0,0,0,0,423
4,0,0,0,0,423
5,0,0,0,0,423
6,0,0,0,0,423
7,0,0,0,0,423
8,0,0,0,0,423
9,0,0,0,0,423
10,0,0,0,0,423
11,0,0,0,0,423
12,0,0,0,0,423
13,0,0,0,0,423
14,0,0,0,0,423
15,0,0,0,0,423
0,0,0,0,0,423
1,0,0,0,0,423
2,0,0,0,0,423
3,0,0,0,0,423
4,0,0,0,0,423
5,0,0,0,0,423
6,0,0,0,0,423
7,0,0,0,0,422
8,0,0,0,0,422
9,0,0,0,0,423
10,0,0,0,0,422
11,0,0,0,0,422
12,0,0,0,0,422
13,0,0,0,0,422
14,0,0,0,0,422
15,0,0,0,0,422
0,0,0,0,0,422
1,0,0,0,0,422
2,0,0,0,0,422
3,0,0,0,0,422
4,0,0,0,0,422
5,0,0,0,0,422
6,0,0,0,0,422
7,0,0,0,0,422
8,0,0,0,0,422
9,0,0,0,0,422
10,0,0,0,0,422
11,0,0,0,0,422
12,0,0,0,0,422
13,0,0,0,0,422
14,0,0,0,0,422
15,0,0,0,0,422
0,0,0,0,0,422
1,0,0,0,0,422
2,0,0,0,0,422
3,0,0,0,0,421
4,0,0,0,0,421
5,0,0,0,0,421
6,0,0,0,0,421
7,0,0,0,0,421
8,0,0,0,0,421
9,0,0,0,0,421
10,0,0,0,0,421
11,0,0,0,0,421
12,0,0,0,0,421
13,0,0,0,0,421
14,0,0,0,0,421
15,0,0,0,0,421
0,0,0,0,0,421
1,0,0,0,0,421
2,0,0,0,0,421
3,0,0,0,0,421
4,0,0,0,0,421
5,0,0,0,0,421
6,0,0,0,0,421
7,0,0,0,0,421
8,0,0,0,0,421
9,0,0,0,0,421
10,0,0,0,0,420
11,0,0,0,0,420
12,0,0,0,0,420
13,0,0,0,0,421
14,0,0,0,0,420
15,0,0,0,0,420
0,0,0,0,0,420
1,0,0,0,0,420
2,0,0,0,0,420
3,0,0,0,0,420
4,0,0,0,0,420
5,0,0,0,0,420
6,0,0,0,0,420
7,0,0,0,0,420
8,0,0,0,0,420
9,0,0,0,0,420
10,0,0,0,0,420
11,0,0,0,0,420
12,0,0,0,0,420
13,0,0,0,0,420
14,0,0,0,0,420
15,0,0,0,0,420
0,0,0,0,0,420
1,0,0,0,0,420
2,0,0,0,0,420
3,0,0,0,0,420
4,0,0,0,0,420
5,0,0,0,0,420
6,0,0,0,0,419
7,0,0,0,0,419
8,0,0,0,0,420
9,0,0,0,0,420
10,0,0,0,0,419
11,0,0,0,0,419
12,0,0,0,0,419
13,0,0,0,0,419
14,0,0,0,0,419
15,0,0,0,0,419
0,0,0,0,0,419
1,0,0,0,0,419
2,0,0,0,0,419
3,0,0,0,0,419
4,0,0,0,0,419
5,0,0,0,0,419
6,0,0,0,0,419
7,0,0,0,0,419
8,0,0,0,0,419
9,0,0,0,0,419
10,0,0,0,0,419
11,0,0,0,0,419
12,0,0,0,0,419
13,0,0,0,0,419
14,0,0,0,0,419
15,0,0,0,0,419
0,0,0,0,0,419
1,0,0,0,0,419
2,0,0,0,0,419
3,0,0,0,0,419
4,0,0,0,0,419
5,0,0,0,0,419
6,0,0,0,0,419
7,0,0,0,0,419
8,0,0,0,0,419
9,0,0,0,0,419
10,0,0,0,0,419
11,0,0,0,0,419
12,0,0,0,0,419
13,0,0,0,0,419
14,0,0,0,0,419
15,0,0,0,0,419
0,0,0,0,0,419
1,0,0,0,0,419
2,0,0,0,0,419
3,0,0,0,0,418
4,0,0,0,0,418
5,0,0,0,0,419
6,0,0,0,0,418
7,0,0,0,0,418
8,0,0,0,0,418
9,0,0,0,0,418
10,0,0,0,0,418
11,0,0,0,0,418
12,0,0,0,0,418
13,0,0,0,0,418
14,0,0,0,0,418
15,0,0,0,0,418
0,0,0,0,0,418
1,0,0,0,0,418
2,0,0,0,0,418
3,0,0,0,0,418
4,0,0,0,0,418
5,0,0,0,0,418
6,0,0,0,0,418
7,0,0,0,0,418
8,0,0,0,0,418
9,0,0,0,0,418
10,0,0,0,0,418
11,0,0,0,0,418
12,0,0,0,0,418
13,0,0,0,0,418
14,0,0,0,0,418
15,0,0,0,0,417
0,0,0,0,0,418
1,0,0,0,0,418
2,0,0,0,0,418
3,0,0,0,0,417
4,0,0,0,0,417
5,0,0,0,0,417
6,0,0,0,0,417
7,0,0,0,0,417
8,0,0,0,0,417
9,0,0,0,0,417
10,0,0,0,0,417
11,0,0,0,0,417
12,0,0,0,0,417
13,0,0,0,0,417
14,0,0,0,0,417
15,0,0,0,0,417
0,0,0,0,0,417
1,0,0,0,0,417
2,0,0,0,0,417
3,0,0,0,0,417
4,0,0,0,0,417
5,0,0,0,0,417
6,0,0,0,0,417
7,0,0,0,0,417
8,0,0,0,0,417
9,0,0,0,0,417
10,0,0,0,0,417
11,0,0,0,0,417
12,0,0,0,0,417
13,0,0,0,0,417
14,0,0,0,0,417
15,0,0,0,0,417
0,0,0,0,0,417
1,0,0,0,0,417
2,0,0,0,0,417
3,0,0,0,0,417
4,0,0,0,0,417
5,0,0,0,0,417
6,0,0,0,0,417
7,0,0,0,0,417
8,0,0,0,0,417
9,0,0,0,0,417
10,0,0,0,0,417
11,0,0,0,0,417
12,0,0,0,0,417
13,0,0,0,0,417
14,0,0,0,0,416
15,0,0,0,0,417
0,0,0,0,0,416
1,0,0,0,0,416
2,0,0,0,0,416
3,0,0,0,0,416
4,0,0,0,0,416
5,0,0,0,0,416
6,0,0,0,0,416
7,0,0,0,0,416
8,0,0,0,0,416
9,0,0,0,0,416
10,0,0,0,0,416
11,0,0,0,0,416
12,0,0,0,0,416
13,0,0,0,0,416
14,0,0,0,0,416
15,0,0,0,0,416
0,0,0,0,0,416
1,0,0,0,0,416
2,0,0,0,0,416
3,0,0,0,0,416
4,0,0,0,0,416
5,0,0,0,0,416
6,0,0,0,0,416
7,0,0,0,0,416
8,0,0,0,0,416
9,0,0,0,0,416
10,0,0,0,0,416
11,0,0,0,0,416
12,0,0,0,0,416
13,0,0,0,0,416
14,0,0,0,0,416
15,0,0,0,0,416
0,0,0,0,0,416
1,0,0,0,0,416
2,0,0,0,0,416
3,0,0,0,0,416
4,0,0,0,0,416
5,0,0,0,0,416
6,0,0,0,0,416
7,0,0,0,0,415
8,0,0,0,0,416
9,0,0,0,0,416
10,0,0,0,0,416
11,0,0,0,0,415
12,0,0,0,0,415
13,0,0,0,0,416
14,0,0,0,0,415
15,0,0,0,0,415
0,0,0,0,0,416
1,0,0,0,0,415
2,0,0,0,0,415
3,0,0,0,0,415
4,0,0,0,0,415
5,0,0,0,0,416
6,0,0,0,0,415
7,0,0,0,0,415
8,0,0,0,0,415
9,0,0,0,0,415
10,0,0,0,0,415
11,0,0,0,0,415
12,0,0,0,0,415
13,0,0,0,0,415
14,0,0,0,0,415
15,0,0,0,0,415
0,0,0,0,0,415
1,0,0,0,0,415
2,0,0,0,0,415
3,0,0,0,0,415
4,0,0,0,0,415
5,0,0,0,0,415
6,0,0,0,0,415
7,0,0,0,0,415
8,0,0,0,0,415
9,0,0,0,0,415
10,0,0,0,0,415
11,0,0,0,0,415
12,0,0,0,0,415
13,0,0,0,0,415
14,0,0,0,0,415
15,0,0,0,0,415
0,0,0,0,0,415
1,0,0,0,0,415
2,0,0,0,0,415
3,0,0,0,0,415
4,0,0,0,0,415
5,0,0,0,0,415
6,0,0,0,0,415
7,0,0,0,0,415
8,0,0,0,0,415
9,0,0,0,0,415
10,0,0,0,0,415
11,0,0,0,0,415
12,0,0,0,0,415
13,0,0,0,0,415
14,0,0,0,0,415
15,0,0,0,0,415
0,0,0,0,0,415
1,0,0,0,0,415
2,0,0,0,0,415
3,0,0,0,0,415
4,0,0,0,0,415
5,0,0,0,0,415
6,0,0,0,0,415
7,0,0,0,0,414
8,0,0,0,0,414
9,0,0,0,0,415
10,0,0,0,0,414
11,0,0,0,0,414
12,0,0,0,0,414
13,0,0,0,0,414
14,0,0,0,0,414
15,0,0,0,0,414
0,0,0,0,0,414
1,0,0,0,0,414
2,0,0,0,0,414
3,0,0,0,0,414
4,0,0,0,0,414
5,0,0,0,0,414
6,0,0,0,0,414
7,0,0,0,0,414
8,0,0,0,0,414
9,0,0,0,0,414
10,0,0,0,0,414
11,0,0,0,0,414
12,0,0,0,0,414
13,0,0,0,0,414
14,0,0,0,0,414
15,0,0,0,0,414
0,0,0,0,0,414
1,0,0,0,0,414
2,0,0,0,0,414
3,0,0,0,0,414
4,0,0,0,0,414
5,0,0,0,0,414
6,0,0,0,0,414
7,0,0,0,0,414
8,0,0,0,0,414
9,0,0,0,0,414
10,0,0,0,0,414
11,0,0,0,0,414
12,0,0,0,0,414
13,0,0,0,0,414
14,0,0,0,0,414
15,0,0,0,0,414
0,0,0,0,0,414
1,0,0,0,0,414
2,0,0,0,0,414
3,0,0,0,0,414
4,0,0,0,0,414
5,0,0,0,0,414
6,0,0,0,0,413
7,0,0,0,0,413
8,0,0,0,0,413
9,0,0,0,0,414
10,0,0,0,0,414
11,0,0,0,0,413
12,0,0,0,0,413
13,0,0,0,0,414
14,0,0,0,0,413
15,0,0,0,0,413
0,0,0,0,0,413
1,0,0,0,0,413
2,0,0,0,0,413
3,0,0,0,0,413
4,0,0,0,0,413
5,0,0,0,0,413
6,0,0,0,0,413
7,0,0,0,0,413
8,0,0,0,0,413
9,0,0,0,0,413
10,0,0,0,0,413
11,0,0,0,0,413
12,0,0,0,0,413
13,0,0,0,0,413
14,0,0,0,0,413
15,0,0,0,0,413
0,0,0,0,0,413
1,0,0,0,0,413
2,0,0,0,0,413
3,0,0,0,0,413
4,0,0,0,0,413
5,0,0,0,0,413
6,0,0,0,0,413
7,0,0,0,0,413
8,0,0,0,0,413
9,0,0,0,0,413
10,0,0,0,0,413
11,0,0,0,0,413
12,0,0,0,0,413
13,0,0,0,0,413
14,0,0,0,0,413
15,0,0,0,0,413
0,0,0,0,0,413
1,0,0,0,0,413
2,0,0,0,0,412
3,0,0,0,0,412
4,0,0,0,0,412
5,0,0,0,0,412
6,0,0,0,0,412
7,0,0,0,0,412
8,0,0,0,0,412
9,0,0,0,0,412
10,0,0,0,0,412
11,0,0,0,0,412
12,0,0,0,0,412
13,0,0,0,0,412
14,0,0,0,0,412
15,0,0,0,0,412
0,0,0,0,0,412
1,0,0,0,0,412
2,0,0,0,0,412
3,0,0,0,0,412
4,0,0,0,0,412
5,0,0,0,0,412
6,0,0,0,0,412
7,0,0,0,0,412
8,0,0,0,0,412
9,0,0,0,0,412
10,0,0,0,0,412
11,0,0,0,0,412
12,0,0,0,0,412
13,0,0,0,0,412
14,0,0,0,0,412
15,0,0,0,0,412
0,0,0,0,0,412
1,0,0,0,0,412
2,0,0,0,0,412
3,0,0,0,0,412
4,0,0,0,0,412
5,0,0,0,0,412
6,0,0,0,0,412
7,0,0,0,0,412
8,0,0,0,0,412
9,0,0,0,0,412
10,0,0,0,0,412
11,0,0,0,0,412
12,0,0,0,0,412
13,0,0,0,0,412
14,0,0,0,0,412
15,0,0,0,0,412
0,0,0,0,0,412
1,0,0,0,0,412
2,0,0,0,0,412
3,0,0,0,0,412
4,0,0,0,0,412
5,0,0,0,0,412
6,0,0,0,0,411
7,0,0,0,0,411
8,0,0,0,0,412
9,0,0,0,0,412
10,0,0,0,0,411
11,0,0,0,0,411
12,0,0,0,0,411
13,0,0,0,0,411
14,0,0,0,0,411
15,0,0,0,0,411
0,0,0,0,0,411
1,0,0,0,0,411
2,0,0,0,0,411
3,0,0,0,0,411
4,0,0,0,0,411
5,0,0,0,0,411
6,0,0,0,0,411
7,0,0,0,0,411
8,0,0,0,0,411
9,0,0,0,0,411
10,0,0,0,0,411
11,0,0,0,0,411
12,0,0,0,0,411
13,0,0,0,0,411
14,0,0,0,0,411
15,0,0,0,0,411
0,0,0,0,0,411
1,0,0,0,0,411
2,0,0,0,0,411
3,0,0,0,0,411
4,0,0,0,0,411
5,0,0,0,0,411
6,0,0,0,0,411
7,0,0,0,0,411
8,0,0,0,0,411
9,0,0,0,0,411
10,0,0,0,0,411
11,0,0,0,0,411
12,0,0,0,0,411
13,0,0,0,0,411
14,0,0,0,0,411
15,0,0,0,0,411
0,0,0,0,0,411
1,0,0,0,0,411
2,0,0,0,0,410
3,0,0,0,0,410
4,0,0,0,0,411
5,0,0,0,0,411
6,0,0,0,0,411
7,0,0,0,0,410
8,0,0,0,0,410
9,0,0,0,0,410
10,0,0,0,0,410
11,0,0,0,0,410
12,0,0,0,0,410
13,0,0,0,0,410
14,0,0,0,0,410
15,0,0,0,0,410
0,0,0,0,0,410
1,0,0,0,0,410
2,0,0,0,0,410
3,0,0,0,0,410
4,0,0,0,0,410
5,0,0,0,0,410
6,0,0,0,0,410
7,0,0,0,0,410
8,0,0,0,0,410
9,0,0,0,0,410
10,0,0,0,0,410
11,0,0,0,0,410
12,0,0,0,0,410
13,0,0,0,0,410
14,0,0,0,0,410
15,0,0,0,0,410
0,0,0,0,0,410
1,0,0,0,0,410
2,0,0,0,0,410
3,0,0,0,0,409
4,0,0,0,0,410
5,0,0,0,0,410
6,0,0,0,0,410
7,0,0,0,0,410
8,0,0,0,0,409
9,0,0,0,0,410
10,0,0,0,0,409
11,0,0,0,0,409
12,0,0,0,0,409
13,0,0,0,0,409
14,0,0,0,0,409
15,0,0,0,0,409
0,0,0,0,0,409
1,0,0,0,0,409
2,0,0,0,0,409
3,0,0,0,0,409
4,0,0,0,0,409
5,0,0,0,0,409
6,0,0,0,0,409
7,0,0,0,0,409
8,0,0,0,0,409
9,0,0,0,0,409
10,0,0,0,0,409
11,0,0,0,0,409
12,0,0,0,0,409
13,0,0,0,0,409
14,0,0,0,0,409
15,0,0,0,0,409
0,0,0,0,0,409
1,0,0,0,0,409
2,0,0,0,0,409
3,0,0,0,0,409
4,0,0,0,0,409
5,0,0,0,0,409
6,0,0,0,0,409
7,0,0,0,0,409
8,0,0,0,0,409
9,0,0,0,0,409
10,0,0,0,0,409
11,0,0,0,0,409
12,0,0,0,0,409
13,0,0,0,0,409
14,0,0,0,0,409
15,0,0,0,0,409
0,0,0,0,0,409
1,0,0,0,0,409
2,0,0,0,0,409
3,0,0,0,0,409
4,0,0,0,0,409
5,0,0,0,0,409
6,0,0,0,0,409
7,0,0,0,0,409
8,0,0,0,0,409
9,0,0,0,0,409
10,0,0,0,0,409
11,0,0,0,0,409
12,0,0,0,0,409
13,0,0,0,0,409
14,0,0,0,0,409
15,0,0,0,0,408
0,0,0,0,0,408
1,0,0,0,0,408
2,0,0,0,0,408
3,0,0,0,0,408
4,0,0,0,0,408
5,0,0,0,0,408
6,0,0,0,0,408
7,0,0,0,0,408
8,0,0,0,0,408
9,0,0,0,0,408
10,0,0,0,0,408
11,0,0,0,0,408
12,0,0,0,0,408
13,0,0,0,0,408
14,0,0,0,0,408
15,0,0,0,0,408
0,0,0,0,0,408
1,0,0,0,0,408
2,0,0,0,0,408
3,0,0,0,0,408
4,0,0,0,0,408
5,0,0,0,0,408
6,0,0,0,0,408
7,0,0,0,0,408
8,0,0,0,0,408
9,0,0,0,0,408
10,0,0,0,0,408
11,0,0,0,0,408
12,0,0,0,0,408
13,0,0,0,0,408
14,0,0,0,0,408
15,0,0,0,0,408
0,0,0,0,0,408
1,0,0,0,0,408
2,0,0,0,0,408
3,0,0,0,0,408
4,0,0,0,0,408
5,0,0,0,0,408
6,0,0,0,0,408
7,0,0,0,0,408
8,0,0,0,0,408
9,0,0,0,0,408
10,0,0,0,0,408
11,0,0,0,0,408
12,0,0,0,0,408
13,0,0,0,0,408
14,0,0,0,0,408
15,0,0,0,0,408
0,0,0,0,0,408
1,0,0,0,0,408
2,0,0,0,0,408
3,0,0,0,0,408
4,0,0,0,0,408
5,0,0,0,0,408
6,0,0,0,0,408
7,0,0,0,0,408
8,0,0,0,0,408
9,0,0,0,0,408
10,0,0,0,0,408
11,0,0,0,0,407
12,0,0,0,0,408
13,0,0,0,0,408
14,0,0,0,0,408
15,0,0,0,0,408
0,0,0,0,0,408
1,0,0,0,0,408
2,0,0,0,0,408
3,0,0,0,0,407
4,0,0,0,0,408
5,0,0,0,0,408
6,0,0,0,0,408
7,0,0,0,0,407
8,0,0,0,0,407
9,0,0,0,0,408
10,0,0,0,0,407
11,0,0,0,0,407
12,0,0,0,0,407
13,0,0,0,0,408
14,0,0,0,0,407
15,0,0,0,0,407
0,0,0,0,0,407
1,0,0,0,0,407
2,0,0,0,0,407
3,0,0,0,0,407
4,0,0,0,0,407
5,0,0,0,0,407
6,0,0,0,0,407
7,0,0,0,0,407
8,0,0,0,0,407
9,0,0,0,0,407
10,0,0,0,0,407
11,0,0,0,0,407
12,0,0,0,0,407
13,0,0,0,0,407
14,0,0,0,0,407
15,0,0,0,0,407
0,0,0,0,0,407
1,0,0,0,0,407
2,0,0,0,0,407
3,0,0,0,0,407
4,0,0,0,0,407
5,0,0,0,0,407
6,0,0,0,0,407
7,0,0,0,0,407
8,0,0,0,0,407
9,0,0,0,0,407
10,0,0,0,0,407
11,0,0,0,0,407
12,0,0,0,0,407
13,0,0,0,0,407
14,0,0,0,0,407
15,0,0,0,0,407
0,0,0,0,0,407
1,0,0,0,0,407
2,0,0,0,0,407
3,0,0,0,0,407
4,0,0,0,0,407
5,0,0,0,0,407
6,0,0,0,0,407
7,0,0,0,0,407
8,0,0,0,0,407
9,0,0,0,0,407
10,0,0,0,0,407
11,0,0,0,0,407
12,0,0,0,0,407
13,0,0,0,0,407
14,0,0,0,0,407
15,0,0,0,0,407
0,0,0,0,0,407
1,0,0,0,0,407
2,0,0,0,0,407
3,0,0,0,0,407
4,0,0,0,0,407
5,0,0,0,0,407
6,0,0,0,0,407
7,0,0,0,0,407
8,0,0,0,0,407
9,0,0,0,0,407
10,0,0,0,0,407
11,0,0,0,0,407
12,0,0,0,0,407
13,0,0,0,0,407
14,0,0,0,0,407
15,0,0,0,0,407
0,0,0,0,0,407
1,0,0,0,0,407
2,0,0,0,0,407
3,0,0,0,0,406
4,0,0,0,0,407
5,0,0,0,0,407
6,0,0,0,0,406
7,0,0,0,0,406
8,0,0,0,0,406
9,0,0,0,0,407
10,0,0,0,0,406
11,0,0,0,0,406
12,0,0,0,0,406
13,0,0,0,0,407
14,0,0,0,0,406
15,0,0,0,0,406
0,0,0,0,0,406
1,0,0,0,0,406
2,0,0,0,0,406
3,0,0,0,0,406
4,0,0,0,0,406
5,0,0,0,0,406
6,0,0,0,0,406
7,0,0,0,0,406
8,0,0,0,0,406
9,0,0,0,0,406
10,0,0,0,0,406
11,0,0,0,0,406
12,0,0,0,0,406
13,0,0,0,0,406
14,0,0,0,0,406
15,0,0,0,0,406
0,0,0,0,0,406
1,0,0,0,0,406
2,0,0,0,0,406
3,0,0,0,0,406
4,0,0,0,0,406
5,0,0,0,0,406
6,0,0,0,0,406
7,0,0,0,0,406
8,0,0,0,0,406
9,0,0,0,0,406
10,0,0,0,0,406
11,0,0,0,0,406
12,0,0,0,0,406
13,0,0,0,0,406
14,0,0,0,0,406
15,0,0,0,0,406
0,0,0,0,0,406
1,0,0,0,0,406
2,0,0,0,0,406
3,0,0,0,0,406
4,0,0,0,0,406
5,0,0,0,0,406
6,0,0,0,0,406
7,0,0,0,0,406
8,0,0,0,0,406
9,0,0,0,0,406
10,0,0,0,0,406
11,0,0,0,0,406
12,0,0,0,0,406
13,0,0,0,0,406
14,0,0,0,0,406
15,0,0,0,0,406
0,0,0,0,0,406
1,0,0,0,0,406
2,0,0,0,0,406
3,0,0,0,0,406
4,0,0,0,0,406
5,0,0,0,0,406
6,0,0,0,0,406
7,0,0,0,0,406
8,0,0,0,0,406
9,0,0,0,0,406
10,0,0,0,0,406
11,0,0,0,0,406
12,0,0,0,0,406
13,0,0,0,0,406
14,0,0,0,0,406
15,0,0,0,0,406
0,0,0,0,0,406
1,0,0,0,0,406
2,0,0,0,0,406
3,0,0,0,0,406
4,0,0,0,0,406
5,0,0,0,0,406
6,0,0,0,0,406
7,0,0,0,0,406
8,0,0,0,0,406
9,0,0,0,0,406
10,0,0,0,0,406
11,0,0,0,0,405
12,0,0,0,0,406
13,0,0,0,0,406
14,0,0,0,0,406
15,0,0,0,0,405
0,0,0,0,0,405
1,0,0,0,0,406
2,0,0,0,0,406
3,0,0,0,0,405
4,0,0,0,0,405
5,0,0,0,0,405
6,0,0,0,0,405
7,0,0,0,0,405
8,0,0,0,0,405
9,0,0,0,0,405
10,0,0,0,0,405
11,0,0,0,0,405
12,0,0,0,0,405
13,0,0,0,0,405
14,0,0,0,0,405
15,0,0,0,0,405
0,0,0,0,0,405
1,0,0,0,0,405
2,0,0,0,0,405
3,0,0,0,0,405
4,0,0,0,0,405
5,0,0,0,0,405
6,0,0,0,0,405
7,0,0,0,0,405
8,0,0,0,0,405
9,0,0,0,0,405
10,0,0,0,0,405
11,0,0,0,0,405
12,0,0,0,0,405
13,0,0,0,0,405
14,0,0,0,0,405
15,0,0,0,0,405
0,0,0,0,0,405
1,0,0,0,0,405
2,0,0,0,0,405
3,0,0,0,0,405
4,0,0,0,0,405
5,0,0,0,0,405
6,0,0,0,0,405
7,0,0,0,0,405
8,0,0,0,0,405
9,0,0,0,0,405
10,0,0,0,0,405
11,0,0,0,0,405
12,0,0,0,0,405
13,0,0,0,0,405
14,0,0,0,0,405
15,0,0,0,0,405
0,0,0,0,0,405
1,0,0,0,0,405
2,0,0,0,0,405
3,0,0,0,0,405
4,0,0,0,0,405
5,0,0,0,0,405
6,0,0,0,0,405
7,0,0,0,0,405
8,0,0,0,0,405
9,0,0,0,0,405
10,0,0,0,0,405
11,0,0,0,0,404
12,0,0,0,0,405
13,0,0,0,0,405
14,0,0,0,0,405
15,0,0,0,0,404
0,0,0,0,0,405
1,0,0,0,0,405
2,0,0,0,0,404
3,0,0,0,0,404
4,0,0,0,0,404
5,0,0,0,0,404
6,0,0,0,0,404
7,0,0,0,0,404
8,0,0,0,0,404
9,0,0,0,0,404
10,0,0,0,0,404
11,0,0,0,0,404
12,0,0,0,0,404
13,0,0,0,0,404
14,0,0,0,0,404
15,0,0,0,0,404
0,0,0,0,0,404
1,0,0,0,0,404
2,0,0,0,0,404
3,0,0,0,0,404
4,0,0,0,0,404
5,0,0,0,0,404
6,0,0,0,0,404
7,0,0,0,0,404
8,0,0,0,0,404
9,0,0,0,0,404
10,0,0,0,0,404
11,0,0,0,0,404
12,0,0,0,0,404
13,0,0,0,0,404
14,0,0,0,0,404
15,0,0,0,0,404
0,0,0,0,0,404
1,0,0,0,0,404
2,0,0,0,0,404
3,0,0,0,0,404
4,0,0,0,0,404
5,0,0,0,0,404
6,0,0,0,0,404
7,0,0,0,0,404
8,0,0,0,0,404
9,0,0,0,0,404
10,0,0,0,0,404
11,0,0,0,0,404
12,0,0,0,0,404
13,0,0,0,0,404
14,0,0,0,0,404
15,0,0,0,0,404
0,0,0,0,0,404
1,0,0,0,0,404
2,0,0,0,0,404
3,0,0,0,0,403
4,0,0,0,0,404
5,0,0,0,0,404
6,0,0,0,0,404
7,0,0,0,0,404
8,0,0,0,0,403
9,0,0,0,0,404
10,0,0,0,0,403
11,0,0,0,0,403
12,0,0,0,0,403
13,0,0,0,0,404
14,0,0,0,0,403
15,0,0,0,0,403
0,0,0,0,0,403
1,0,0,0,0,403
2,0,0,0,0,403
3,0,0,0,0,403
4,0,0,0,0,403
5,0,0,0,0,403
6,0,0,0,0,403
7,0,0,0,0,403
8,0,0,0,0,403
9,0,0,0,0,403
10,0,0,0,0,403
11,0,0,0,0,403
12,0,0,0,0,403
13,0,0,0,0,403
14,0,0,0,0,403
15,0,0,0,0,403
0,0,0,0,0,403
1,0,0,0,0,403
2,0,0,0,0,403
3,0,0,0,0,403
4,0,0,0,0,403
5,0,0,0,0,403
6,0,0,0,0,403
7,0,0,0,0,403
8,0,0,0,0,403
9,0,0,0,0,403
10,0,0,0,0,403
11,0,0,0,0,403
12,0,0,0,0,403
13,0,0,0,0,403
14,0,0,0,0,403
15,0,0,0,0,403
0,0,0,0,0,403
1,0,0,0,0,403
2,0,0,0,0,403
3,0,0,0,0,403
4,0,0,0,0,403
5,0,0,0,0,403
6,0,0,0,0,403
7,0,0,0,0,403
8,0,0,0,0,403
9,0,0,0,0,403
10,0,0,0,0,403
11,0,0,0,0,403
12,0,0,0,0,403
13,0,0,0,0,403
14,0,0,0,0,403
15,0,0,0,0,403
0,0,0,0,0,403
1,0,0,0,0,403
2,0,0,0,0,403
3,0,0,0,0,403
4,0,0,0,0,403
5,0,0,0,0,403
6,0,0,0,0,403
7,0,0,0,0,403
8,0,0,0,0,403
9,0,0,0,0,403
10,0,0,0,0,403
11,0,0,0,0,402
12,0,0,0,0,402
13,0,0,0,0,403
14,0,0,0,0,402
15,0,0,0,0,402
0,0,0,0,0,402
1,0,0,0,0,403
2,0,0,0,0,402
3,0,0,0,0,402
4,0,0,0,0,402
5,0,0,0,0,402
6,0,0,0,0,402
7,0,0,0,0,402
8,0,0,0,0,402
9,0,0,0,0,402
10,0,0,0,0,402
11,0,0,0,0,402
12,0,0,0,0,402
13,0,0,0,0,402
14,0,0,0,0,402
15,0,0,0,0,402
0,0,0,0,0,402
1,0,0,0,0,402
2,0,0,0,0,402
3,0,0,0,0,402
4,0,0,0,0,402
5,0,0,0,0,402
6,0,0,0,0,402
7,0,0,0,0,402
8,0,0,0,0,402
9,0,0,0,0,402
10,0,0,0,0,402
11,0,0,0,0,402
12,0,0,0,0,402
13,0,0,0,0,402
14,0,0,0,0,402
15,0,0,0,0,402
0,0,0,0,0,402
1,0,0,0,0,402
2,0,0,0,0,402
3,0,0,0,0,402
4,0,0,0,0,402
5,0,0,0,0,402
6,0,0,0,0,402
7,0,0,0,0,401
8,0,0,0,0,401
9,0,0,0,0,402
10,0,0,0,0,401
11,0,0,0,0,401
12,0,0,0,0,402
13,0,0,0,0,401
14,0,0,0,0,401
15,0,0,0,0,401
0,0,0,0,0,401
1,0,0,0,0,401
2,0,0,0,0,401
3,0,0,0,0,401
4,0,0,0,0,401
5,0,0,0,0,401
6,0,0,0,0,401
7,0,0,0,0,401
8,0,0,0,0,401
9,0,0,0,0,401
10,0,0,0,0,401
11,0,0,0,0,401
12,0,0,0,0,401
13,0,0,0,0,401
14,0,0,0,0,401
15,0,0,0,0,401
0,0,0,0,0,401
1,0,0,0,0,401
2,0,0,0,0,401
3,0,0,0,0,401
4,0,0,0,0,401
5,0,0,0,0,401
6,0,0,0,0,401
7,0,0,0,0,401
8,0,0,0,0,401
9,0,0,0,0,401
10,0,0,0,0,401
11,0,0,0,0,401
12,0,0,0,0,401
13,0,0,0,0,401
14,0,0,0,0,401
15,0,0,0,0,401
0,0,0,0,0,401
1,0,0,0,0,401
2,0,0,0,0,401
3,0,0,0,0,401
4,0,0,0,0,401
5,0,0,0,0,401
6,0,0,0,0,401
7,0,0,0,0,400
8,0,0,0,0,401
9,0,0,0,0,401
10,0,0,0,0,401
11,0,0,0,0,401
12,0,0,0,0,401
13,0,0,0,0,401
14,0,0,0,0,401
15,0,0,0,0,400
0,0,0,0,0,400
1,0,0,0,0,401
2,0,0,0,0,400
3,0,0,0,0,400
4,0,0,0,0,400
5,0,0,0,0,400
6,0,0,0,0,400
7,0,0,0,0,400
8,0,0,0,0,400
9,0,0,0,0,400
10,0,0,0,0,400
11,0,0,0,0,400
12,0,0,0,0,400
13,0,0,0,0,400
14,0,0,0,0,400
15,0,0,0,0,400
0,0,0,0,0,400
1,0,0,0,0,400
2,0,0,0,0,400
3,0,0,0,0,400
4,0,0,0,0,400
5,0,0,0,0,400
6,0,0,0,0,400
7,0,0,0,0,400
8,0,0,0,0,400
9,0,0,0,0,400
10,0,0,0,0,400
11,0,0,0,0,400
12,0,0,0,0,400
13,0,0,0,0,400
14,0,0,0,0,400
15,0,0,0,0,400
0,0,0,0,0,400
1,0,0,0,0,400
2,0,0,0,0,400
3,0,0,0,0,400
4,0,0,0,0,400
5,0,0,0,0,400
6,0,0,0,0,400
7,0,0,0,0,400
8,0,0,0,0,400
9,0,0,0,0,400
10,0,0,0,0,400
11,0,0,0,0,400
12,0,0,0,0,400
13,0,0,0,0,400
14,0,0,0,0,400
15,0,0,0,0,399
0,0,0,0,0,399
1,0,0,0,0,399
2,0,0,0,0,399
3,0,0,0,0,399
4,0,0,0,0,399
5,0,0,0,0,399
6,0,0,0,0,399
7,0,0,0,0,399
8,0,0,0,0,399
9,0,0,0,0,399
10,0,0,0,0,399
11,0,0,0,0,399
12,0,0,0,0,399
13,0,0,0,0,399
14,0,0,0,0,399
15,0,0,0,0,399
0,0,0,0,0,399
1,0,0,0,0,399
2,0,0,0,0,399
3,0,0,0,0,399
4,0,0,0,0,399
5,0,0,0,0,399
6,0,0,0,0,399
7,0,0,0,0,399
8,0,0,0,0,399
9,0,0,0,0,399
10,0,0,0,0,399
11,0,0,0,0,399
12,0,0,0,0,399
13,0,0,0,0,399
14,0,0,0,0,399
15,0,0,0,0,399
0,0,0,0,0,399
1,0,0,0,0,399
2,0,0,0,0,399
3,0,0,0,0,399
4,0,0,0,0,399
5,0,0,0,0,399
6,0,0,0,0,399
7,0,0,0,0,399
8,0,0,0,0,399
9,0,0,0,0,399
10,0,0,0,0,399
11,0,0,0,0,399
12,0,0,0,0,399
13,0,0,0,0,399
14,0,0,0,0,399
15,0,0,0,0,399
0,0,0,0,0,399
1,0,0,0,0,399
2,0,0,0,0,399
3,0,0,0,0,399
4,0,0,0,0,399
5,0,0,0,0,399
6,0,0,0,0,399
7,0,0,0,0,399
8,0,0,0,0,399
9,0,0,0,0,399
10,0,0,0,0,399
11,0,0,0,0,398
12,0,0,0,0,398
13,0,0,0,0,399
14,0,0,0,0,398
15,0,0,0,0,398
0,0,0,0,0,398
1,0,0,0,0,398
2,0,0,0,0,398
3,0,0,0,0,398
4,0,0,0,0,398
5,0,0,0,0,398
6,0,0,0,0,398
7,0,0,0,0,398
8,0,0,0,0,398
9,0,0,0,0,398
10,0,0,0,0,398
11,0,0,0,0,398
12,0,0,0,0,398
13,0,0,0,0,398
14,0,0,0,0,398
15,0,0,0,0,398
0,0,0,0,0,398
1,0,0,0,0,398
2,0,0,0,0,398
3,0,0,0,0,398
4,0,0,0,0,398
5,0,0,0,0,398
6,0,0,0,0,398
7,0,0,0,0,398
8,0,0,0,0,398
9,0,0,0,0,398
10,0,0,0,0,398
11,0,0,0,0,398
12,0,0,0,0,398
13,0,0,0,0,398
14,0,0,0,0,398
15,0,0,0,0,398
0,0,0,0,0,398
1,0,0,0,0,398
2,0,0,0,0,398
3,0,0,0,0,398
4,0,0,0,0,398
5,0,0,0,0,398
6,0,0,0,0,398
7,0,0,0,0,398
8,0,0,0,0,398
9,0,0,0,0,398
10,0,0,0,0,398
11,0,0,0,0,397
12,0,0,0,0,398
13,0,0,0,0,398
14,0,0,0,0,398
15,0,0,0,0,397
0,0,0,0,0,397
1,0,0,0,0,397
2,0,0,0,0,397
3,0,0,0,0,397
4,0,0,0,0,397
5,0,0,0,0,397
6,0,0,0,0,397
7,0,0,0,0,397
8,0,0,0,0,397
9,0,0,0,0,397
10,0,0,0,0,397
11,0,0,0,0,397
12,0,0,0,0,397
13,0,0,0,0,397
14,0,0,0,0,397
15,0,0,0,0,397
0,0,0,0,0,397
1,0,0,0,0,397
2,0,0,0,0,397
3,0,0,0,0,397
4,0,0,0,0,397
5,0,0,0,0,397
6,0,0,0,0,397
7,0,0,0,0,397
8,0,0,0,0,397
9,0,0,0,0,397
10,0,0,0,0,397
11,0,0,0,0,397
12,0,0,0,0,397
13,0,0,0,0,397
14,0,0,0,0,397
15,0,0,0,0,397
0,0,0,0,0,397
1,0,0,0,0,397
2,0,0,0,0,397
3,0,0,0,0,397
4,0,0,0,0,396
5,0,0,0,0,396
6,0,0,0,0,396
7,0,0,0,0,396
8,0,0,0,0,396
9,0,0,0,0,397
10,0,0,0,0,396
11,0,0,0,0,396
12,0,0,0,0,396
13,0,0,0,0,396
14,0,0,0,0,396
15,0,0,0,0,396
0,0,0,0,0,396
1,0,0,0,0,396
2,0,0,0,0,396
3,0,0,0,0,396
4,0,0,0,0,396
5,0,0,0,0,396
6,0,0,0,0,396
7,0,0,0,0,396
8,0,0,0,0,396
9,0,0,0,0,396
10,0,0,0,0,396
11,0,0,0,0,396
12,0,0,0,0,396
13,0,0,0,0,396
14,0,0,0,0,396
15,0,0,0,0,396
0,0,0,0,0,396
1,0,0,0,0,396
2,0,0,0,0,396
3,0,0,0,0,396
4,0,0,0,0,396
5,0,0,0,0,396
6,0,0,0,0,396
7,0,0,0,0,396
8,0,0,0,0,396
9,0,0,0,0,396
10,0,0,0,0,396
11,0,0,0,0,396
12,0,0,0,0,396
13,0,0,0,0,396
14,0,0,0,0,396
15,0,0,0,0,396
0,0,0,0,0,396
1,0,0,0,0,396
2,0,0,0,0,396
3,0,0,0,0,396
4,0,0,0,0,396
