nSeq,I1,I2,O1,O2,A5,A6
0	0	0	0	0	625	64
1	0	0	0	0	629	65
2	0	0	0	0	633	65
3	0	0	0	0	629	65
4	0	0	0	0	625	65
5	0	0	0	0	629	65
6	0	0	0	0	633	65
7	0	0	0	0	630	65
8	0	0	0	0	625	65
9	0	0	0	0	629	65
10	0	0	0	0	633	64
11	0	0	0	0	628	64
12	0	0	0	0	625	64
13	0	0	0	0	630	64
14	0	0	0	0	633	63
15	0	0	0	0	629	63
0	0	0	0	0	625	63
1	0	0	0	0	629	63
2	0	0	0	0	634	63
3	0	0	0	0	629	63
4	0	0	0	0	625	63
5	0	0	0	0	629	63
6	0	0	0	0	633	63
7	0	0	0	0	629	62
8	0	0	0	0	625	63
9	0	0	0	0	629	63
10	0	0	0	0	633	63
11	0	0	0	0	630	63
12	0	0	0	0	625	62
13	0	0	0	0	630	63
14	0	0	0	0	633	63
15	0	0	0	0	629	63
0	0	0	0	0	625	63
1	0	0	0	0	630	62
2	0	0	0	0	634	63
3	0	0	0	0	629	62
4	0	0	0	0	625	63
5	0	0	0	0	629	62
6	0	0	0	0	633	63
7	0	0	0	0	629	63
8	0	0	0	0	625	63
9	0	0	0	0	629	63
10	0	0	0	0	633	63
11	0	0	0	0	629	63
12	0	0	0	0	625	63
13	0	0	0	0	629	63
14	0	0	0	0	633	63
15	0	0	0	0	629	64
0	0	0	0	0	625	64
1	0	0	0	0	628	64
2	0	0	0	0	634	64
3	0	0	0	0	629	64
4	0	0	0	0	626	64
5	0	0	0	0	629	64
6	0	0	0	0	633	63
7	0	0	0	0	629	64
8	0	0	0	0	625	64
9	0	0	0	0	629	64
10	0	0	0	0	633	65
11	0	0	0	0	629	64
12	0	0	0	0	626	65
13	0	0	0	0	629	64
14	0	0	0	0	633	65
15	0	0	0	0	628	65
0	0	0	0	0	625	65
1	0	0	0	0	630	65
2	0	0	0	0	633	65
3	0	0	0	0	629	65
4	0	0	0	0	625	65
5	0	0	0	0	629	65
6	0	0	0	0	633	65
7	0	0	0	0	629	65
8	0	0	0	0	625	65
9	0	0	0	0	630	65
10	0	0	0	0	633	65
11	0	0	0	0	629	65
12	0	0	0	0	625	65
13	0	0	0	0	630	65
14	0	0	0	0	633	65
15	0	0	0	0	629	65
0	0	0	0	0	625	65
1	0	0	0	0	629	65
2	0	0	0	0	633	65
3	0	0	0	0	630	65
4	0	0	0	0	625	66
5	0	0	0	0	629	69
6	0	0	0	0	633	73
7	0	0	0	0	630	76
8	0	0	0	0	626	80
9	0	0	0	0	629	85
10	0	0	0	0	633	90
11	0	0	0	0	629	93
12	0	0	0	0	625	97
13	0	0	0	0	629	99
14	0	0	0	0	633	103
15	0	0	0	0	628	105
0	0	0	0	0	625	109
1	0	0	0	0	630	113
2	0	0	0	0	633	119
3	0	0	0	0	629	126
4	0	0	0	0	625	134
5	0	0	0	0	630	143
6	0	0	0	0	633	153
7	0	0	0	0	629	164
8	0	0	0	0	625	175
9	0	0	0	0	630	187
10	0	0	0	0	633	199
11	0	0	0	0	629	212
12	0	0	0	0	626	224
13	0	0	0	0	629	235
14	0	0	0	0	634	245
15	0	0	0	0	629	255
0	0	0	0	0	625	263
1	0	0	0	0	630	270
2	0	0	0	0	634	275
3	0	0	0	0	629	280
4	0	0	0	0	625	283
5	0	0	0	0	630	286
6	0	0	0	0	633	290
7	0	0	0	0	628	295
8	0	0	0	0	626	300
9	0	0	0	0	629	304
10	0	0	0	0	634	307
11	0	0	0	0	628	310
12	0	0	0	0	625	312
13	0	0	0	0	630	313
14	0	0	0	0	633	313
15	0	0	0	0	629	313
0	0	0	0	0	625	313
1	0	0	0	0	630	313
2	0	0	0	0	633	313
3	0	0	0	0	629	313
4	0	0	0	0	625	314
5	0	0	0	0	629	313
6	0	0	0	0	633	313
7	0	0	0	0	630	312
8	0	0	0	0	625	312
9	0	0	0	0	630	311
10	0	0	0	0	634	309
11	0	0	0	0	630	308
12	0	0	0	0	625	307
13	0	0	0	0	629	307
14	0	0	0	0	634	307
15	0	0	0	0	630	307
0	0	0	0	0	625	308
1	0	0	0	0	628	309
2	0	0	0	0	633	310
3	0	0	0	0	629	312
4	0	0	0	0	625	313
5	0	0	0	0	630	315
6	0	0	0	0	633	317
7	0	0	0	0	629	318
8	0	0	0	0	625	319
9	0	0	0	0	630	320
10	0	0	0	0	633	322
11	0	0	0	0	629	323
12	0	0	0	0	625	324
13	0	0	0	0	629	326
14	0	0	0	0	633	327
15	0	0	0	0	630	328
0	0	0	0	0	625	330
1	0	0	0	0	628	332
2	0	0	0	0	633	333
3	0	0	0	0	629	335
4	0	0	0	0	625	337
5	0	0	0	0	630	338
6	0	0	0	0	633	340
7	0	0	0	0	630	342
8	0	0	0	0	625	344
9	0	0	0	0	629	345
10	0	0	0	0	634	347
11	0	0	0	0	629	347
12	0	0	0	0	625	348
13	0	0	0	0	629	349
14	0	0	0	0	634	349
15	0	0	0	0	630	350
0	0	0	0	0	625	350
1	0	0	0	0	629	350
2	0	0	0	0	633	351
3	0	0	0	0	630	351
4	0	0	0	0	625	351
5	0	0	0	0	629	351
6	0	0	0	0	633	351
7	0	0	0	0	629	351
8	0	0	0	0	625	351
9	0	0	0	0	630	351
10	0	0	0	0	633	351
11	0	0	0	0	629	351
12	0	0	0	0	625	351
13	0	0	0	0	630	350
14	0	0	0	0	633	350
15	0	0	0	0	629	351
0	0	0	0	0	625	350
1	0	0	0	0	630	351
2	0	0	0	0	633	351
3	0	0	0	0	629	351
4	0	0	0	0	625	351
5	0	0	0	0	630	351
6	0	0	0	0	632	352
7	0	0	0	0	628	352
8	0	0	0	0	625	352
9	0	0	0	0	629	352
10	0	0	0	0	633	352
11	0	0	0	0	629	352
12	0	0	0	0	625	352
13	0	0	0	0	629	352
14	0	0	0	0	633	352
15	0	0	0	0	629	352
0	0	0	0	0	626	353
1	0	0	0	0	629	353
2	0	0	0	0	633	353
3	0	0	0	0	629	353
4	0	0	0	0	625	354
5	0	0	0	0	629	354
6	0	0	0	0	633	355
7	0	0	0	0	630	355
8	0	0	0	0	625	355
9	0	0	0	0	629	355
10	0	0	0	0	633	354
11	0	0	0	0	629	355
12	0	0	0	0	626	354
13	0	0	0	0	629	354
14	0	0	0	0	633	354
15	0	0	0	0	628	354
0	0	0	0	0	625	354
1	0	0	0	0	629	354
2	0	0	0	0	633	354
3	0	0	0	0	629	354
4	0	0	0	0	625	354
5	0	0	0	0	629	355
6	0	0	0	0	633	355
7	0	0	0	0	629	355
8	0	0	0	0	625	356
9	0	0	0	0	629	356
10	0	0	0	0	633	356
11	0	0	0	0	629	356
12	0	0	0	0	625	356
13	0	0	0	0	629	355
14	0	0	0	0	633	356
15	0	0	0	0	629	355
0	0	0	0	0	625	355
1	0	0	0	0	630	355
2	0	0	0	0	633	355
3	0	0	0	0	629	355
4	0	0	0	0	625	355
5	0	0	0	0	629	355
6	0	0	0	0	633	355
7	0	0	0	0	629	355
8	0	0	0	0	625	356
9	0	0	0	0	629	356
10	0	0	0	0	633	356
11	0	0	0	0	630	356
12	0	0	0	0	625	356
13	0	0	0	0	629	356
14	0	0	0	0	634	357
15	0	0	0	0	629	358
0	0	0	0	0	625	358
1	0	0	0	0	630	359
2	0	0	0	0	633	359
3	0	0	0	0	629	359
4	0	0	0	0	625	360
5	0	0	0	0	630	361
6	0	0	0	0	633	361
7	0	0	0	0	630	361
8	0	0	0	0	625	361
9	0	0	0	0	629	361
10	0	0	0	0	633	361
11	0	0	0	0	629	360
12	0	0	0	0	625	360
13	0	0	0	0	629	360
14	0	0	0	0	634	360
15	0	0	0	0	629	359
0	0	0	0	0	625	359
1	0	0	0	0	629	359
2	0	0	0	0	633	359
3	0	0	0	0	629	359
4	0	0	0	0	625	359
5	0	0	0	0	629	359
6	0	0	0	0	633	359
7	0	0	0	0	629	358
8	0	0	0	0	625	358
9	0	0	0	0	629	358
10	0	0	0	0	633	358
11	0	0	0	0	629	358
12	0	0	0	0	626	358
13	0	0	0	0	629	359
14	0	0	0	0	633	359
15	0	0	0	0	629	359
0	0	0	0	0	625	360
1	0	0	0	0	629	360
2	0	0	0	0	633	360
3	0	0	0	0	629	360
4	0	0	0	0	625	360
5	0	0	0	0	629	360
6	0	0	0	0	633	361
7	0	0	0	0	630	361
8	0	0	0	0	626	361
9	0	0	0	0	629	362
10	0	0	0	0	633	363
11	0	0	0	0	629	363
12	0	0	0	0	625	363
13	0	0	0	0	629	364
14	0	0	0	0	634	364
15	0	0	0	0	630	365
0	0	0	0	0	625	366
1	0	0	0	0	629	366
2	0	0	0	0	633	367
3	0	0	0	0	629	367
4	0	0	0	0	625	368
5	0	0	0	0	629	368
6	0	0	0	0	633	368
7	0	0	0	0	629	369
8	0	0	0	0	625	369
9	0	0	0	0	629	369
10	0	0	0	0	633	369
11	0	0	0	0	630	369
12	0	0	0	0	625	369
13	0	0	0	0	629	369
14	0	0	0	0	633	369
15	0	0	0	0	630	369
0	0	0	0	0	625	369
1	0	0	0	0	630	368
2	0	0	0	0	633	368
3	0	0	0	0	630	367
4	0	0	0	0	624	367
5	0	0	0	0	629	366
6	0	0	0	0	633	365
7	0	0	0	0	629	364
8	0	0	0	0	625	362
9	0	0	0	0	629	360
10	0	0	0	0	633	358
11	0	0	0	0	630	356
12	0	0	0	0	625	353
13	0	0	0	0	630	351
14	0	0	0	0	634	347
15	0	0	0	0	629	344
0	0	0	0	0	625	340
1	0	0	0	0	630	337
2	0	0	0	0	633	334
3	0	0	0	0	630	331
4	0	0	0	0	624	327
5	0	0	0	0	629	326
6	0	0	0	0	633	324
7	0	0	0	0	629	320
8	0	0	0	0	625	319
9	0	0	0	0	630	319
10	0	0	0	0	633	322
11	0	0	0	0	629	327
12	0	0	0	0	625	331
13	0	0	0	0	629	332
14	0	0	0	0	633	334
15	0	0	0	0	628	335
0	0	0	0	0	625	336
1	0	0	0	0	629	338
2	0	0	0	0	633	339
3	0	0	0	0	629	339
4	0	0	0	0	625	339
5	0	0	0	0	629	338
6	0	0	0	0	634	335
7	0	0	0	0	630	333
8	0	0	0	0	625	327
9	0	0	0	0	630	321
10	0	0	0	0	634	313
11	0	0	0	0	629	303
12	0	0	0	0	625	295
13	0	0	0	0	629	285
14	0	0	0	0	633	275
15	0	0	0	0	629	267
0	0	0	0	0	625	258
1	0	0	0	0	630	252
2	0	0	0	0	633	246
3	0	0	0	0	628	241
4	0	0	0	0	625	238
5	0	0	0	0	629	235
6	0	0	0	0	633	233
7	0	0	0	0	629	231
8	0	0	0	0	624	230
9	0	0	0	0	630	228
10	0	0	0	0	634	227
11	0	0	0	0	628	227
12	0	0	0	0	625	228
13	0	0	0	0	629	229
14	0	0	0	0	633	230
15	0	0	0	0	629	230
0	0	0	0	0	625	230
1	0	0	0	0	630	229
2	0	0	0	0	633	228
3	0	0	0	0	629	227
4	0	0	0	0	625	225
5	0	0	0	0	630	223
6	0	0	0	0	633	221
7	0	0	0	0	630	219
8	0	0	0	0	625	217
9	0	0	0	0	629	214
10	0	0	0	0	633	213
11	0	0	0	0	629	211
12	0	0	0	0	625	209
13	0	0	0	0	630	208
14	0	0	0	0	633	207
15	0	0	0	0	629	207
0	0	0	0	0	625	207
1	0	0	0	0	629	207
2	0	0	0	0	633	207
3	0	0	0	0	630	207
4	0	0	0	0	625	206
5	0	0	0	0	630	206
6	0	0	0	0	633	205
7	0	0	0	0	629	204
8	0	0	0	0	625	204
9	0	0	0	0	629	204
10	0	0	0	0	633	204
11	0	0	0	0	629	204
12	0	0	0	0	626	205
13	0	0	0	0	630	206
14	0	0	0	0	634	207
15	0	0	0	0	629	209
0	0	0	0	0	625	209
1	0	0	0	0	630	210
2	0	0	0	0	633	210
3	0	0	0	0	630	210
4	0	0	0	0	625	209
5	0	0	0	0	629	208
6	0	0	0	0	634	207
7	0	0	0	0	630	206
8	0	0	0	0	624	203
9	0	0	0	0	629	200
10	0	0	0	0	633	196
11	0	0	0	0	629	191
12	0	0	0	0	625	185
13	0	0	0	0	629	179
14	0	0	0	0	633	171
15	0	0	0	0	630	161
0	0	0	0	0	626	152
1	0	0	0	0	629	143
2	0	0	0	0	633	136
3	0	0	0	0	629	130
4	0	0	0	0	625	124
5	0	0	0	0	629	121
6	0	0	0	0	633	118
7	0	0	0	0	629	118
8	0	0	0	0	625	118
9	0	0	0	0	630	120
10	0	0	0	0	633	122
11	0	0	0	0	629	125
12	0	0	0	0	625	128
13	0	0	0	0	629	131
14	0	0	0	0	633	133
15	0	0	0	0	629	135
0	0	0	0	0	625	137
1	0	0	0	0	629	138
2	0	0	0	0	633	140
3	0	0	0	0	629	142
4	0	0	0	0	625	144
5	0	0	0	0	630	148
6	0	0	0	0	634	151
7	0	0	0	0	628	155
8	0	0	0	0	625	158
9	0	0	0	0	628	162
10	0	0	0	0	633	164
11	0	0	0	0	629	167
12	0	0	0	0	625	169
13	0	0	0	0	629	172
14	0	0	0	0	633	174
15	0	0	0	0	629	176
0	0	0	0	0	625	179
1	0	0	0	0	629	183
2	0	0	0	0	633	187
3	0	0	0	0	629	191
4	0	0	0	0	624	194
5	0	0	0	0	629	199
6	0	0	0	0	633	204
7	0	0	0	0	629	207
8	0	0	0	0	625	211
9	0	0	0	0	630	215
10	0	0	0	0	633	217
11	0	0	0	0	629	218
12	0	0	0	0	625	218
13	0	0	0	0	629	217
14	0	0	0	0	633	216
15	0	0	0	0	630	214
0	0	0	0	0	625	213
1	0	0	0	0	629	211
2	0	0	0	0	634	210
3	0	0	0	0	629	208
4	0	0	0	0	625	207
5	0	0	0	0	629	206
6	0	0	0	0	633	205
7	0	0	0	0	629	204
8	0	0	0	0	625	203
9	0	0	0	0	630	201
10	0	0	0	0	633	199
11	0	0	0	0	629	197
12	0	0	0	0	625	194
13	0	0	0	0	630	190
14	0	0	0	0	633	187
15	0	0	0	0	629	183
0	0	0	0	0	625	179
1	0	0	0	0	630	174
2	0	0	0	0	633	167
3	0	0	0	0	629	161
4	0	0	0	0	625	156
5	0	0	0	0	629	150
6	0	0	0	0	633	144
7	0	0	0	0	629	140
8	0	0	0	0	625	135
9	0	0	0	0	628	131
10	0	0	0	0	633	127
11	0	0	0	0	629	124
12	0	0	0	0	625	122
13	0	0	0	0	630	119
14	0	0	0	0	633	117
15	0	0	0	0	629	115
0	0	0	0	0	625	113
1	0	0	0	0	629	111
2	0	0	0	0	633	108
3	0	0	0	0	629	105
4	0	0	0	0	625	101
5	0	0	0	0	629	97
6	0	0	0	0	634	93
7	0	0	0	0	630	89
8	0	0	0	0	625	87
9	0	0	0	0	629	86
10	0	0	0	0	633	85
11	0	0	0	0	630	84
12	0	0	0	0	625	85
13	0	0	0	0	629	86
14	0	0	0	0	633	86
15	0	0	0	0	629	86
0	0	0	0	0	625	87
1	0	0	0	0	629	87
2	0	0	0	0	633	87
3	0	0	0	0	628	87
4	0	0	0	0	625	87
5	0	0	0	0	629	86
6	0	0	0	0	634	85
7	0	0	0	0	630	85
8	0	0	0	0	625	85
9	0	0	0	0	630	85
10	0	0	0	0	633	84
11	0	0	0	0	629	84
12	0	0	0	0	625	85
13	0	0	0	0	630	84
14	0	0	0	0	633	85
15	0	0	0	0	628	85
0	0	0	0	0	625	85
1	0	0	0	0	630	84
2	0	0	0	0	633	84
3	0	0	0	0	630	84
4	0	0	0	0	626	83
5	0	0	0	0	629	83
6	0	0	0	0	633	83
7	0	0	0	0	630	82
8	0	0	0	0	625	82
9	0	0	0	0	630	82
10	0	0	0	0	633	81
11	0	0	0	0	630	81
12	0	0	0	0	625	81
13	0	0	0	0	629	80
14	0	0	0	0	633	80
15	0	0	0	0	629	79
0	0	0	0	0	625	79
1	0	0	0	0	630	78
2	0	0	0	0	633	77
3	0	0	0	0	630	76
4	0	0	0	0	625	76
5	0	0	0	0	628	75
6	0	0	0	0	633	75
7	0	0	0	0	629	75
8	0	0	0	0	625	74
9	0	0	0	0	629	74
10	0	0	0	0	633	74
11	0	0	0	0	630	75
12	0	0	0	0	625	75
13	0	0	0	0	630	75
14	0	0	0	0	633	75
15	0	0	0	0	630	75
0	0	0	0	0	625	75
1	0	0	0	0	629	75
2	0	0	0	0	634	75
3	0	0	0	0	629	75
4	0	0	0	0	626	76
5	0	0	0	0	630	76
6	0	0	0	0	634	76
7	0	0	0	0	629	76
8	0	0	0	0	625	76
9	0	0	0	0	629	76
10	0	0	0	0	633	76
11	0	0	0	0	629	76
12	0	0	0	0	625	76
13	0	0	0	0	630	77
14	0	0	0	0	633	76
15	0	0	0	0	629	77
0	0	0	0	0	625	77
1	0	0	0	0	629	77
2	0	0	0	0	633	77
3	0	0	0	0	630	77
4	0	0	0	0	625	77
5	0	0	0	0	630	77
6	0	0	0	0	633	77
7	0	0	0	0	629	76
8	0	0	0	0	624	77
9	0	0	0	0	629	77
10	0	0	0	0	633	77
11	0	0	0	0	629	77
12	0	0	0	0	625	77
13	0	0	0	0	629	77
14	0	0	0	0	633	77
15	0	0	0	0	629	77
0	0	0	0	0	626	77
1	0	0	0	0	629	77
2	0	0	0	0	634	77
3	0	0	0	0	630	77
4	0	0	0	0	625	76
5	0	0	0	0	628	76
6	0	0	0	0	634	76
7	0	0	0	0	629	76
8	0	0	0	0	625	76
9	0	0	0	0	629	76
10	0	0	0	0	633	75
11	0	0	0	0	628	76
12	0	0	0	0	624	76
13	0	0	0	0	629	76
14	0	0	0	0	634	76
15	0	0	0	0	630	76
0	0	0	0	0	625	76
1	0	0	0	0	629	76
2	0	0	0	0	633	76
3	0	0	0	0	629	76
4	0	0	0	0	625	76
5	0	0	0	0	630	75
6	0	0	0	0	633	76
7	0	0	0	0	629	76
8	0	0	0	0	626	76
9	0	0	0	0	629	76
10	0	0	0	0	634	76
11	0	0	0	0	629	76
12	0	0	0	0	625	76
13	0	0	0	0	630	76
14	0	0	0	0	633	77
15	0	0	0	0	629	77
0	0	0	0	0	625	78
1	0	0	0	0	630	79
2	0	0	0	0	634	80
3	0	0	0	0	629	82
4	0	0	0	0	625	83
5	0	0	0	0	630	84
6	0	0	0	0	633	85
7	0	0	0	0	629	85
8	0	0	0	0	625	86
9	0	0	0	0	629	87
10	0	0	0	0	633	87
11	0	0	0	0	630	88
12	0	0	0	0	625	88
13	0	0	0	0	629	89
14	0	0	0	0	633	90
15	0	0	0	0	630	91
0	0	0	0	0	625	93
1	0	0	0	0	629	95
2	0	0	0	0	634	98
3	0	0	0	0	629	102
4	0	0	0	0	625	107
5	0	0	0	0	629	111
6	0	0	0	0	633	116
7	0	0	0	0	629	119
8	0	0	0	0	624	123
9	0	0	0	0	631	124
10	0	0	0	0	635	125
11	0	0	0	0	627	125
12	0	0	0	0	624	124
13	0	0	0	0	631	123
14	0	0	0	0	633	121
15	0	0	0	0	627	120
0	0	0	0	0	625	118
1	0	0	0	0	631	116
2	0	0	0	0	633	115
3	0	0	0	0	628	114
4	0	0	0	0	625	113
5	0	0	0	0	630	112
6	0	0	0	0	633	111
7	0	0	0	0	628	111
8	0	0	0	0	625	110
9	0	0	0	0	629	109
10	0	0	0	0	633	109
11	0	0	0	0	629	108
12	0	0	0	0	625	107
13	0	0	0	0	629	106
14	0	0	0	0	633	105
15	0	0	0	0	630	104
0	0	0	0	0	625	103
1	0	0	0	0	629	102
2	0	0	0	0	633	101
3	0	0	0	0	630	100
4	0	0	0	0	626	99
5	0	0	0	0	629	99
6	0	0	0	0	633	97
7	0	0	0	0	629	97
8	0	0	0	0	625	96
9	0	0	0	0	629	95
10	0	0	0	0	633	94
11	0	0	0	0	629	92
12	0	0	0	0	625	91
13	0	0	0	0	629	89
14	0	0	0	0	634	87
15	0	0	0	0	629	86
0	0	0	0	0	625	85
1	0	0	0	0	629	84
2	0	0	0	0	634	83
3	0	0	0	0	629	83
4	0	0	0	0	625	82
5	0	0	0	0	629	82
6	0	0	0	0	634	82
7	0	0	0	0	629	81
8	0	0	0	0	625	81
9	0	0	0	0	629	81
10	0	0	0	0	634	79
11	0	0	0	0	629	80
12	0	0	0	0	625	79
13	0	0	0	0	629	79
14	0	0	0	0	634	79
15	0	0	0	0	630	78
0	0	0	0	0	625	78
1	0	0	0	0	629	78
2	0	0	0	0	633	77
3	0	0	0	0	629	76
4	0	0	0	0	625	77
5	0	0	0	0	629	76
6	0	0	0	0	633	76
7	0	0	0	0	629	76
8	0	0	0	0	625	76
9	0	0	0	0	629	76
10	0	0	0	0	633	76
11	0	0	0	0	629	76
12	0	0	0	0	625	77
13	0	0	0	0	629	77
14	0	0	0	0	633	77
15	0	0	0	0	629	76
0	0	0	0	0	625	76
1	0	0	0	0	629	76
2	0	0	0	0	633	76
3	0	0	0	0	629	75
4	0	0	0	0	625	75
5	0	0	0	0	629	75
6	0	0	0	0	634	74
7	0	0	0	0	630	74
8	0	0	0	0	625	74
9	0	0	0	0	629	74
10	0	0	0	0	633	74
11	0	0	0	0	629	74
12	0	0	0	0	625	74
13	0	0	0	0	630	73
14	0	0	0	0	634	73
15	0	0	0	0	629	74
0	0	0	0	0	625	74
1	0	0	0	0	630	74
2	0	0	0	0	633	73
3	0	0	0	0	629	73
4	0	0	0	0	625	73
5	0	0	0	0	630	74
6	0	0	0	0	634	74
7	0	0	0	0	629	74
8	0	0	0	0	625	74
9	0	0	0	0	629	74
10	0	0	0	0	633	74
11	0	0	0	0	629	74
12	0	0	0	0	625	74
13	0	0	0	0	628	74
14	0	0	0	0	633	74
15	0	0	0	0	629	74
0	0	0	0	0	625	74
1	0	0	0	0	629	74
2	0	0	0	0	634	74
3	0	0	0	0	629	73
4	0	0	0	0	625	73
5	0	0	0	0	629	73
6	0	0	0	0	633	73
7	0	0	0	0	629	72
8	0	0	0	0	625	72
9	0	0	0	0	630	72
10	0	0	0	0	633	72
11	0	0	0	0	629	71
12	0	0	0	0	625	71
13	0	0	0	0	629	71
14	0	0	0	0	633	71
15	0	0	0	0	629	71
0	0	0	0	0	625	71
1	0	0	0	0	629	71
2	0	0	0	0	634	71
3	0	0	0	0	629	71
4	0	0	0	0	625	72
5	0	0	0	0	629	72
6	0	0	0	0	634	72
7	0	0	0	0	630	72
8	0	0	0	0	625	73
9	0	0	0	0	629	73
10	0	0	0	0	633	73
11	0	0	0	0	629	73
12	0	0	0	0	625	73
13	0	0	0	0	629	73
14	0	0	0	0	634	73
15	0	0	0	0	629	73
0	0	0	0	0	625	73
1	0	0	0	0	630	73
2	0	0	0	0	633	73
3	0	0	0	0	629	73
4	0	0	0	0	625	73
5	0	0	0	0	628	73
6	0	0	0	0	633	73
7	0	0	0	0	629	73
8	0	0	0	0	625	73
9	0	0	0	0	630	73
10	0	0	0	0	634	73
11	0	0	0	0	629	73
12	0	0	0	0	625	73
13	0	0	0	0	629	74
14	0	0	0	0	633	74
15	0	0	0	0	629	74
0	0	0	0	0	625	74
1	0	0	0	0	629	74
2	0	0	0	0	633	74
3	0	0	0	0	629	75
4	0	0	0	0	625	75
5	0	0	0	0	629	75
6	0	0	0	0	633	75
7	0	0	0	0	629	75
8	0	0	0	0	625	75
9	0	0	0	0	629	75
10	0	0	0	0	633	75
11	0	0	0	0	630	75
12	0	0	0	0	626	75
13	0	0	0	0	630	76
14	0	0	0	0	633	76
15	0	0	0	0	629	76
0	0	0	0	0	625	76
1	0	0	0	0	629	76
2	0	0	0	0	634	76
3	0	0	0	0	629	75
4	0	0	0	0	625	76
5	0	0	0	0	630	76
6	0	0	0	0	633	76
7	0	0	0	0	629	75
8	0	0	0	0	625	76
9	0	0	0	0	629	76
10	0	0	0	0	633	76
11	0	0	0	0	629	76
12	0	0	0	0	625	76
13	0	0	0	0	629	75
14	0	0	0	0	634	75
15	0	0	0	0	630	75
0	0	0	0	0	625	75
1	0	0	0	0	629	75
2	0	0	0	0	633	75
3	0	0	0	0	629	75
4	0	0	0	0	625	75
5	0	0	0	0	629	74
6	0	0	0	0	633	75
7	0	0	0	0	629	75
8	0	0	0	0	625	75
9	0	0	0	0	629	74
10	0	0	0	0	633	74
11	0	0	0	0	630	74
12	0	0	0	0	625	74
13	0	0	0	0	629	74
14	0	0	0	0	633	74
15	0	0	0	0	629	74
0	0	0	0	0	625	74
1	0	0	0	0	629	74
2	0	0	0	0	633	74
3	0	0	0	0	630	74
4	0	0	0	0	626	74
5	0	0	0	0	630	74
6	0	0	0	0	634	75
7	0	0	0	0	630	75
8	0	0	0	0	625	75
9	0	0	0	0	630	75
10	0	0	0	0	633	76
11	0	0	0	0	629	76
12	0	0	0	0	624	78
13	0	0	0	0	629	81
14	0	0	0	0	633	89
15	0	0	0	0	630	98
0	0	0	0	0	625	105
1	0	0	0	0	629	113
2	0	0	0	0	633	124
3	0	0	0	0	629	135
4	0	0	0	0	625	144
5	0	0	0	0	629	152
6	0	0	0	0	632	158
7	0	0	0	0	629	163
8	0	0	0	0	625	166
9	0	0	0	0	629	169
10	0	0	0	0	633	171
11	0	0	0	0	631	173
12	0	0	0	0	626	174
13	0	0	0	0	628	174
14	0	0	0	0	633	174
15	0	0	0	0	630	174
0	0	0	0	0	626	173
1	0	0	0	0	628	174
2	0	0	0	0	633	176
3	0	0	0	0	630	178
4	0	0	0	0	625	184
5	0	0	0	0	629	190
6	0	0	0	0	633	196
7	0	0	0	0	630	203
8	0	0	0	0	625	211
9	0	0	0	0	629	221
10	0	0	0	0	633	231
11	0	0	0	0	630	244
12	0	0	0	0	624	256
13	0	0	0	0	630	268
14	0	0	0	0	633	278
15	0	0	0	0	629	285
0	0	0	0	0	624	290
1	0	0	0	0	629	290
2	0	0	0	0	633	291
3	0	0	0	0	629	289
4	0	0	0	0	625	286
5	0	0	0	0	630	282
6	0	0	0	0	633	279
7	0	0	0	0	628	276
8	0	0	0	0	625	273
9	0	0	0	0	630	272
10	0	0	0	0	633	272
11	0	0	0	0	629	274
12	0	0	0	0	625	274
13	0	0	0	0	629	275
14	0	0	0	0	634	277
15	0	0	0	0	630	278
0	0	0	0	0	625	279
1	0	0	0	0	630	279
2	0	0	0	0	633	280
3	0	0	0	0	629	281
4	0	0	0	0	625	282
5	0	0	0	0	629	284
6	0	0	0	0	633	287
7	0	0	0	0	629	291
8	0	0	0	0	625	295
9	0	0	0	0	630	301
10	0	0	0	0	633	305
11	0	0	0	0	630	307
12	0	0	0	0	625	308
13	0	0	0	0	629	308
14	0	0	0	0	633	307
15	0	0	0	0	629	305
0	0	0	0	0	626	303
1	0	0	0	0	629	302
2	0	0	0	0	633	300
3	0	0	0	0	630	298
4	0	0	0	0	626	299
5	0	0	0	0	629	302
6	0	0	0	0	634	306
7	0	0	0	0	629	311
8	0	0	0	0	625	318
9	0	0	0	0	629	328
10	0	0	0	0	633	339
11	0	0	0	0	629	351
12	0	0	0	0	625	361
13	0	0	0	0	629	371
14	0	0	0	0	634	381
15	0	0	0	0	629	389
0	0	0	0	0	626	393
1	0	0	0	0	629	396
2	0	0	0	0	634	398
3	0	0	0	0	629	397
4	0	0	0	0	625	395
5	0	0	0	0	629	391
6	0	0	0	0	633	388
7	0	0	0	0	630	385
8	0	0	0	0	625	382
9	0	0	0	0	630	380
10	0	0	0	0	633	378
11	0	0	0	0	629	376
12	0	0	0	0	625	376
13	0	0	0	0	630	377
14	0	0	0	0	633	378
15	0	0	0	0	629	380
0	0	0	0	0	625	382
1	0	0	0	0	630	384
2	0	0	0	0	634	385
3	0	0	0	0	630	388
4	0	0	0	0	625	391
5	0	0	0	0	629	393
6	0	0	0	0	633	394
7	0	0	0	0	629	395
8	0	0	0	0	625	396
9	0	0	0	0	629	396
10	0	0	0	0	633	395
11	0	0	0	0	629	395
12	0	0	0	0	625	394
13	0	0	0	0	629	393
14	0	0	0	0	633	392
15	0	0	0	0	629	392
0	0	0	0	0	624	391
1	0	0	0	0	630	391
2	0	0	0	0	634	391
3	0	0	0	0	630	391
4	0	0	0	0	625	391
5	0	0	0	0	629	392
6	0	0	0	0	633	392
7	0	0	0	0	630	391
8	0	0	0	0	625	391
9	0	0	0	0	629	391
10	0	0	0	0	633	390
11	0	0	0	0	628	389
12	0	0	0	0	625	387
13	0	0	0	0	629	387
14	0	0	0	0	634	385
15	0	0	0	0	630	384
0	0	0	0	0	625	384
1	0	0	0	0	629	383
2	0	0	0	0	633	383
3	0	0	0	0	630	383
4	0	0	0	0	625	383
5	0	0	0	0	629	383
6	0	0	0	0	633	383
7	0	0	0	0	629	383
8	0	0	0	0	625	383
9	0	0	0	0	630	383
10	0	0	0	0	633	384
11	0	0	0	0	630	384
12	0	0	0	0	625	384
13	0	0	0	0	628	385
14	0	0	0	0	633	386
15	0	0	0	0	629	387
0	0	0	0	0	625	388
1	0	0	0	0	629	389
2	0	0	0	0	633	390
3	0	0	0	0	629	391
4	0	0	0	0	625	392
5	0	0	0	0	629	394
6	0	0	0	0	633	395
7	0	0	0	0	629	397
8	0	0	0	0	624	398
9	0	0	0	0	629	399
10	0	0	0	0	632	400
11	0	0	0	0	633	401
12	0	0	0	0	624	401
13	0	0	0	0	627	401
14	0	0	0	0	634	401
15	0	0	0	0	630	400
0	0	0	0	0	624	399
1	0	0	0	0	628	399
2	0	0	0	0	635	398
3	0	0	0	0	630	397
4	0	0	0	0	624	396
5	0	0	0	0	629	394
6	0	0	0	0	633	392
7	0	0	0	0	629	389
8	0	0	0	0	625	386
9	0	0	0	0	630	381
10	0	0	0	0	634	377
11	0	0	0	0	629	374
12	0	0	0	0	625	370
13	0	0	0	0	629	368
14	0	0	0	0	633	366
15	0	0	0	0	629	364
0	0	0	0	0	625	361
1	0	0	0	0	629	359
2	0	0	0	0	633	355
3	0	0	0	0	629	352
4	0	0	0	0	626	348
5	0	0	0	0	630	344
6	0	0	0	0	633	340
7	0	0	0	0	629	336
8	0	0	0	0	625	334
9	0	0	0	0	629	332
10	0	0	0	0	633	330
11	0	0	0	0	629	329
12	0	0	0	0	625	328
13	0	0	0	0	630	327
14	0	0	0	0	633	327
15	0	0	0	0	629	326
0	0	0	0	0	625	325
1	0	0	0	0	630	323
2	0	0	0	0	634	322
3	0	0	0	0	629	319
4	0	0	0	0	625	317
5	0	0	0	0	629	314
6	0	0	0	0	634	311
7	0	0	0	0	630	308
8	0	0	0	0	625	307
9	0	0	0	0	630	306
10	0	0	0	0	634	306
11	0	0	0	0	629	305
12	0	0	0	0	625	306
13	0	0	0	0	629	307
14	0	0	0	0	633	308
15	0	0	0	0	629	311
0	0	0	0	0	625	313
1	0	0	0	0	630	315
2	0	0	0	0	634	318
3	0	0	0	0	629	319
4	0	0	0	0	625	321
5	0	0	0	0	630	323
6	0	0	0	0	633	323
7	0	0	0	0	630	325
8	0	0	0	0	625	325
9	0	0	0	0	629	328
10	0	0	0	0	633	327
11	0	0	0	0	630	327
12	0	0	0	0	625	328
13	0	0	0	0	629	329
14	0	0	0	0	633	330
15	0	0	0	0	629	331
0	0	0	0	0	625	332
1	0	0	0	0	629	332
2	0	0	0	0	634	333
3	0	0	0	0	629	335
4	0	0	0	0	625	335
5	0	0	0	0	628	335
6	0	0	0	0	633	336
7	0	0	0	0	630	336
8	0	0	0	0	625	336
9	0	0	0	0	629	336
10	0	0	0	0	633	336
11	0	0	0	0	629	336
12	0	0	0	0	625	335
13	0	0	0	0	628	335
14	0	0	0	0	633	335
15	0	0	0	0	629	334
0	0	0	0	0	625	334
1	0	0	0	0	629	333
2	0	0	0	0	633	333
3	0	0	0	0	630	333
4	0	0	0	0	625	332
5	0	0	0	0	629	332
6	0	0	0	0	633	332
7	0	0	0	0	629	332
8	0	0	0	0	625	331
9	0	0	0	0	629	331
10	0	0	0	0	633	331
11	0	0	0	0	630	329
12	0	0	0	0	626	329
13	0	0	0	0	629	329
14	0	0	0	0	632	329
15	0	0	0	0	629	328
0	0	0	0	0	626	328
1	0	0	0	0	628	328
2	0	0	0	0	632	327
3	0	0	0	0	630	327
4	0	0	0	0	625	328
5	0	0	0	0	629	328
6	0	0	0	0	633	328
7	0	0	0	0	630	328
8	0	0	0	0	625	328
9	0	0	0	0	629	328
10	0	0	0	0	634	328
11	0	0	0	0	629	328
12	0	0	0	0	624	328
13	0	0	0	0	629	328
14	0	0	0	0	634	328
15	0	0	0	0	630	329
0	0	0	0	0	626	329
1	0	0	0	0	629	330
2	0	0	0	0	634	331
3	0	0	0	0	629	332
4	0	0	0	0	625	332
5	0	0	0	0	629	333
6	0	0	0	0	633	333
7	0	0	0	0	630	334
8	0	0	0	0	625	334
9	0	0	0	0	629	335
10	0	0	0	0	633	335
11	0	0	0	0	629	335
12	0	0	0	0	625	335
13	0	0	0	0	629	335
14	0	0	0	0	633	335
15	0	0	0	0	629	335
0	0	0	0	0	624	335
1	0	0	0	0	630	335
2	0	0	0	0	633	335
3	0	0	0	0	630	336
4	0	0	0	0	625	336
5	0	0	0	0	629	335
6	0	0	0	0	633	335
7	0	0	0	0	630	335
8	0	0	0	0	625	335
9	0	0	0	0	630	335
10	0	0	0	0	633	335
11	0	0	0	0	629	335
12	0	0	0	0	626	334
13	0	0	0	0	629	335
14	0	0	0	0	633	335
15	0	0	0	0	629	335
0	0	0	0	0	624	335
1	0	0	0	0	629	335
2	0	0	0	0	634	335
3	0	0	0	0	628	335
4	0	0	0	0	625	334
5	0	0	0	0	629	334
6	0	0	0	0	633	334
7	0	0	0	0	629	333
8	0	0	0	0	625	332
9	0	0	0	0	630	332
10	0	0	0	0	633	331
11	0	0	0	0	629	330
12	0	0	0	0	626	330
13	0	0	0	0	629	330
14	0	0	0	0	633	330
15	0	0	0	0	630	330
0	0	0	0	0	625	331
1	0	0	0	0	629	331
2	0	0	0	0	633	331
3	0	0	0	0	629	332
4	0	0	0	0	625	332
5	0	0	0	0	629	332
6	0	0	0	0	634	332
7	0	0	0	0	629	332
8	0	0	0	0	625	332
9	0	0	0	0	630	332
10	0	0	0	0	633	331
11	0	0	0	0	629	331
12	0	0	0	0	626	330
13	0	0	0	0	629	329
14	0	0	0	0	633	329
15	0	0	0	0	629	328
0	0	0	0	0	625	328
1	0	0	0	0	629	327
2	0	0	0	0	633	327
3	0	0	0	0	629	327
4	0	0	0	0	625	326
5	0	0	0	0	629	326
6	0	0	0	0	633	326
7	0	0	0	0	629	325
8	0	0	0	0	625	324
9	0	0	0	0	630	323
10	0	0	0	0	634	322
11	0	0	0	0	630	319
12	0	0	0	0	625	317
13	0	0	0	0	629	315
14	0	0	0	0	634	313
15	0	0	0	0	629	312
0	0	0	0	0	625	311
1	0	0	0	0	629	310
2	0	0	0	0	633	309
3	0	0	0	0	630	308
4	0	0	0	0	626	307
5	0	0	0	0	629	307
6	0	0	0	0	633	307
7	0	0	0	0	629	307
8	0	0	0	0	625	308
9	0	0	0	0	629	310
10	0	0	0	0	633	311
11	0	0	0	0	630	313
12	0	0	0	0	625	315
13	0	0	0	0	629	317
14	0	0	0	0	634	319
15	0	0	0	0	629	320
0	0	0	0	0	625	322
1	0	0	0	0	628	324
2	0	0	0	0	633	326
3	0	0	0	0	629	328
4	0	0	0	0	625	330
5	0	0	0	0	630	332
6	0	0	0	0	633	336
7	0	0	0	0	628	340
8	0	0	0	0	625	344
9	0	0	0	0	628	348
10	0	0	0	0	633	352
11	0	0	0	0	629	355
12	0	0	0	0	625	356
13	0	0	0	0	630	359
14	0	0	0	0	634	362
15	0	0	0	0	630	363
0	0	0	0	0	626	364
1	0	0	0	0	629	365
2	0	0	0	0	633	364
3	0	0	0	0	630	359
4	0	0	0	0	625	353
5	0	0	0	0	631	346
6	0	0	0	0	634	341
7	0	0	0	0	629	333
8	0	0	0	0	625	327
9	0	0	0	0	629	321
10	0	0	0	0	634	317
11	0	0	0	0	629	311
12	0	0	0	0	625	307
13	0	0	0	0	629	305
14	0	0	0	0	634	303
15	0	0	0	0	629	303
0	0	0	0	0	625	305
1	0	0	0	0	630	306
2	0	0	0	0	633	308
3	0	0	0	0	629	310
4	0	0	0	0	625	311
5	0	0	0	0	629	311
6	0	0	0	0	633	311
7	0	0	0	0	630	310
8	0	0	0	0	625	308
9	0	0	0	0	629	305
10	0	0	0	0	634	303
11	0	0	0	0	630	301
12	0	0	0	0	625	297
13	0	0	0	0	629	293
14	0	0	0	0	633	291
15	0	0	0	0	629	288
0	0	0	0	0	625	286
1	0	0	0	0	629	284
2	0	0	0	0	633	283
3	0	0	0	0	629	282
4	0	0	0	0	625	281
5	0	0	0	0	630	280
6	0	0	0	0	634	280
7	0	0	0	0	630	280
8	0	0	0	0	625	280
9	0	0	0	0	629	280
10	0	0	0	0	633	279
11	0	0	0	0	629	279
12	0	0	0	0	625	278
13	0	0	0	0	629	279
14	0	0	0	0	634	279
15	0	0	0	0	629	279
0	0	0	0	0	625	279
1	0	0	0	0	630	278
2	0	0	0	0	634	277
3	0	0	0	0	630	276
4	0	0	0	0	625	275
5	0	0	0	0	630	275
6	0	0	0	0	633	274
7	0	0	0	0	630	273
8	0	0	0	0	625	274
9	0	0	0	0	629	274
10	0	0	0	0	634	274
11	0	0	0	0	629	275
12	0	0	0	0	626	276
13	0	0	0	0	629	277
14	0	0	0	0	634	278
15	0	0	0	0	629	279
0	0	0	0	0	625	279
1	0	0	0	0	629	280
2	0	0	0	0	633	281
3	0	0	0	0	629	281
4	0	0	0	0	625	282
5	0	0	0	0	629	282
6	0	0	0	0	633	283
7	0	0	0	0	629	283
8	0	0	0	0	625	284
9	0	0	0	0	629	284
10	0	0	0	0	633	284
11	0	0	0	0	629	285
12	0	0	0	0	625	285
13	0	0	0	0	629	286
14	0	0	0	0	634	286
15	0	0	0	0	630	287
0	0	0	0	0	625	287
1	0	0	0	0	630	287
2	0	0	0	0	634	288
3	0	0	0	0	630	288
4	0	0	0	0	625	289
5	0	0	0	0	629	289
6	0	0	0	0	633	289
7	0	0	0	0	629	290
8	0	0	0	0	625	290
9	0	0	0	0	629	290
10	0	0	0	0	634	291
11	0	0	0	0	629	291
12	0	0	0	0	625	291
13	0	0	0	0	629	291
14	0	0	0	0	633	293
15	0	0	0	0	630	293
0	0	0	0	0	625	294
1	0	0	0	0	629	295
2	0	0	0	0	633	295
3	0	0	0	0	630	295
4	0	0	0	0	625	296
5	0	0	0	0	629	297
6	0	0	0	0	633	298
7	0	0	0	0	629	298
8	0	0	0	0	625	299
9	0	0	0	0	629	300
10	0	0	0	0	633	300
11	0	0	0	0	629	301
12	0	0	0	0	625	301
13	0	0	0	0	629	302
14	0	0	0	0	634	302
15	0	0	0	0	629	302
0	0	0	0	0	625	303
1	0	0	0	0	628	303
2	0	0	0	0	635	303
3	0	0	0	0	629	304
4	0	0	0	0	625	304
5	0	0	0	0	628	304
6	0	0	0	0	633	305
7	0	0	0	0	630	305
8	0	0	0	0	625	307
9	0	0	0	0	629	308
10	0	0	0	0	633	309
11	0	0	0	0	629	311
12	0	0	0	0	625	312
13	0	0	0	0	629	313
14	0	0	0	0	633	315
15	0	0	0	0	629	317
0	0	0	0	0	625	319
1	0	0	0	0	630	319
2	0	0	0	0	633	321
3	0	0	0	0	629	322
4	0	0	0	0	625	323
5	0	0	0	0	630	323
6	0	0	0	0	633	324
7	0	0	0	0	629	324
8	0	0	0	0	625	324
9	0	0	0	0	629	324
10	0	0	0	0	633	324
11	0	0	0	0	629	324
12	0	0	0	0	625	324
13	0	0	0	0	630	323
14	0	0	0	0	633	323
15	0	0	0	0	629	323
0	0	0	0	0	626	322
1	0	0	0	0	630	321
2	0	0	0	0	634	320
3	0	0	0	0	630	319
4	0	0	0	0	626	319
5	0	0	0	0	629	317
6	0	0	0	0	634	316
7	0	0	0	0	629	316
8	0	0	0	0	625	315
9	0	0	0	0	629	315
10	0	0	0	0	633	314
11	0	0	0	0	629	314
12	0	0	0	0	625	314
13	0	0	0	0	629	314
14	0	0	0	0	633	314
15	0	0	0	0	629	314
0	0	0	0	0	625	315
1	0	0	0	0	629	315
2	0	0	0	0	633	315
3	0	0	0	0	628	315
4	0	0	0	0	625	316
5	0	0	0	0	629	316
6	0	0	0	0	634	315
7	0	0	0	0	629	316
8	0	0	0	0	625	316
9	0	0	0	0	629	315
10	0	0	0	0	633	316
11	0	0	0	0	629	316
12	0	0	0	0	626	315
13	0	0	0	0	630	315
14	0	0	0	0	633	315
15	0	0	0	0	629	315
0	0	0	0	0	625	314
1	0	0	0	0	629	314
2	0	0	0	0	633	315
3	0	0	0	0	630	313
4	0	0	0	0	626	313
5	0	0	0	0	629	312
6	0	0	0	0	633	311
7	0	0	0	0	628	311
8	0	0	0	0	625	309
9	0	0	0	0	630	308
10	0	0	0	0	633	307
11	0	0	0	0	629	306
12	0	0	0	0	625	305
13	0	0	0	0	630	305
14	0	0	0	0	634	305
15	0	0	0	0	629	305
0	0	0	0	0	626	305
1	0	0	0	0	630	306
2	0	0	0	0	633	307
3	0	0	0	0	629	308
4	0	0	0	0	625	308
5	0	0	0	0	629	309
6	0	0	0	0	633	309
7	0	0	0	0	629	310
8	0	0	0	0	625	310
9	0	0	0	0	629	310
10	0	0	0	0	633	310
11	0	0	0	0	630	309
12	0	0	0	0	625	308
13	0	0	0	0	630	307
14	0	0	0	0	633	306
15	0	0	0	0	630	305
0	0	0	0	0	625	303
1	0	0	0	0	629	302
2	0	0	0	0	633	300
3	0	0	0	0	630	299
4	0	0	0	0	625	297
5	0	0	0	0	630	295
6	0	0	0	0	633	295
7	0	0	0	0	630	295
8	0	0	0	0	625	295
9	0	0	0	0	630	295
10	0	0	0	0	633	296
11	0	0	0	0	630	297
12	0	0	0	0	625	298
13	0	0	0	0	630	301
14	0	0	0	0	633	303
15	0	0	0	0	629	305
0	0	0	0	0	625	308
1	0	0	0	0	629	311
2	0	0	0	0	633	313
3	0	0	0	0	629	315
4	0	0	0	0	625	316
5	0	0	0	0	628	317
6	0	0	0	0	633	318
7	0	0	0	0	629	319
8	0	0	0	0	625	319
9	0	0	0	0	630	319
10	0	0	0	0	634	319
11	0	0	0	0	629	319
12	0	0	0	0	625	319
13	0	0	0	0	629	319
14	0	0	0	0	633	319
15	0	0	0	0	630	319
0	0	0	0	0	625	319
1	0	0	0	0	630	319
2	0	0	0	0	633	320
3	0	0	0	0	630	320
4	0	0	0	0	625	320
5	0	0	0	0	630	321
6	0	0	0	0	633	321
7	0	0	0	0	630	321
8	0	0	0	0	625	321
9	0	0	0	0	629	320
10	0	0	0	0	633	60
11	0	0	0	0	629	60
12	0	0	0	0	625	60
13	0	0	0	0	630	61
14	0	0	0	0	633	61
15	0	0	0	0	629	61
0	0	0	0	0	625	61
1	0	0	0	0	630	61
2	0	0	0	0	634	61
3	0	0	0	0	630	62
4	0	0	0	0	626	62
5	0	0	0	0	630	62
6	0	0	0	0	633	62
7	0	0	0	0	629	62
8	0	0	0	0	625	62
9	0	0	0	0	629	62
10	0	0	0	0	633	62
11	0	0	0	0	629	62
12	0	0	0	0	625	62
13	0	0	0	0	630	61
14	0	0	0	0	633	62
15	0	0	0	0	629	62
0	0	0	0	0	625	62
1	0	0	0	0	629	62
2	0	0	0	0	633	62
3	0	0	0	0	629	62
4	0	0	0	0	626	62
5	0	0	0	0	629	62
6	0	0	0	0	633	62
7	0	0	0	0	629	62
8	0	0	0	0	625	62
9	0	0	0	0	629	62
10	0	0	0	0	633	62
11	0	0	0	0	629	62
12	0	0	0	0	625	62
13	0	0	0	0	629	62
14	0	0	0	0	633	62
15	0	0	0	0	629	62
0	0	0	0	0	625	62
1	0	0	0	0	630	62
2	0	0	0	0	633	62
3	0	0	0	0	630	62
4	0	0	0	0	626	62
5	0	0	0	0	628	63
6	0	0	0	0	634	63
7	0	0	0	0	629	62
8	0	0	0	0	625	63
9	0	0	0	0	629	63
10	0	0	0	0	633	63
11	0	0	0	0	630	62
12	0	0	0	0	625	63
13	0	0	0	0	630	62
14	0	0	0	0	634	62
15	0	0	0	0	629	63
0	0	0	0	0	625	63
1	0	0	0	0	630	62
2	0	0	0	0	634	62
3	0	0	0	0	629	63
4	0	0	0	0	625	63
5	0	0	0	0	629	63
6	0	0	0	0	634	63
7	0	0	0	0	629	63
8	0	0	0	0	626	62
9	0	0	0	0	629	63
10	0	0	0	0	633	63
11	0	0	0	0	629	63
12	0	0	0	0	625	63
13	0	0	0	0	629	63
14	0	0	0	0	633	63
15	0	0	0	0	629	63
0	0	0	0	0	624	63
1	0	0	0	0	630	63
2	0	0	0	0	633	63
3	0	0	0	0	629	63
4	0	0	0	0	625	62
5	0	0	0	0	629	62
6	0	0	0	0	634	63
7	0	0	0	0	630	62
8	0	0	0	0	625	62
9	0	0	0	0	630	62
10	0	0	0	0	634	62
11	0	0	0	0	629	62
12	0	0	0	0	625	62
13	0	0	0	0	630	62
14	0	0	0	0	633	62
15	0	0	0	0	629	62
0	0	0	0	0	625	62
1	0	0	0	0	629	62
2	0	0	0	0	633	62
3	0	0	0	0	629	62
4	0	0	0	0	625	62
5	0	0	0	0	629	62
6	0	0	0	0	634	62
7	0	0	0	0	629	62
8	0	0	0	0	624	62
9	0	0	0	0	630	62
10	0	0	0	0	633	62
11	0	0	0	0	628	63
12	0	0	0	0	625	62
13	0	0	0	0	630	62
14	0	0	0	0	634	62
15	0	0	0	0	630	63
0	0	0	0	0	625	63
1	0	0	0	0	629	63
2	0	0	0	0	634	63
3	0	0	0	0	629	63
4	0	0	0	0	625	63
5	0	0	0	0	630	63
6	0	0	0	0	633	63
7	0	0	0	0	630	63
8	0	0	0	0	624	63
9	0	0	0	0	630	63
10	0	0	0	0	634	63
11	0	0	0	0	630	63
12	0	0	0	0	625	63
13	0	0	0	0	630	63
14	0	0	0	0	633	63
15	0	0	0	0	630	63
0	0	0	0	0	625	63
1	0	0	0	0	629	63
2	0	0	0	0	634	63
3	0	0	0	0	630	63
4	0	0	0	0	625	63
5	0	0	0	0	629	63
6	0	0	0	0	633	63
7	0	0	0	0	630	63
8	0	0	0	0	625	63
9	0	0	0	0	629	63
10	0	0	0	0	633	63
11	0	0	0	0	630	63
12	0	0	0	0	625	63
13	0	0	0	0	630	63
14	0	0	0	0	634	63
15	0	0	0	0	630	63
0	0	0	0	0	625	63
1	0	0	0	0	629	63
2	0	0	0	0	634	63
3	0	0	0	0	630	63
4	0	0	0	0	625	63
5	0	0	0	0	630	63
6	0	0	0	0	633	63
7	0	0	0	0	630	63
8	0	0	0	0	625	63
9	0	0	0	0	629	63
10	0	0	0	0	633	63
11	0	0	0	0	629	63
12	0	0	0	0	625	63
13	0	0	0	0	629	63
14	0	0	0	0	634	63
15	0	0	0	0	630	63
0	0	0	0	0	626	63
1	0	0	0	0	629	63
2	0	0	0	0	633	63
3	0	0	0	0	627	63
4	0	0	0	0	625	63
5	0	0	0	0	629	63
6	0	0	0	0	633	63
7	0	0	0	0	630	63
8	0	0	0	0	625	63
9	0	0	0	0	630	63
10	0	0	0	0	634	63
11	0	0	0	0	629	63
12	0	0	0	0	625	63
13	0	0	0	0	629	63
14	0	0	0	0	633	63
15	0	0	0	0	629	63
0	0	0	0	0	625	63
1	0	0	0	0	630	63
2	0	0	0	0	633	63
3	0	0	0	0	630	63
4	0	0	0	0	626	63
5	0	0	0	0	630	63
6	0	0	0	0	635	63
7	0	0	0	0	630	63
8	0	0	0	0	625	63
9	0	0	0	0	630	63
10	0	0	0	0	631	63
11	0	0	0	0	629	63
12	0	0	0	0	626	63
13	0	0	0	0	630	63
14	0	0	0	0	633	63
15	0	0	0	0	629	63
0	0	0	0	0	625	63
1	0	0	0	0	630	63
2	0	0	0	0	634	63
3	0	0	0	0	629	63
4	0	0	0	0	625	63
5	0	0	0	0	630	63
6	0	0	0	0	633	63
7	0	0	0	0	630	63
8	0	0	0	0	625	63
9	0	0	0	0	630	63
10	0	0	0	0	633	63
11	0	0	0	0	630	63
12	0	0	0	0	625	63
13	0	0	0	0	629	63
14	0	0	0	0	633	63
15	0	0	0	0	629	63
0	0	0	0	0	625	63
1	0	0	0	0	629	62
2	0	0	0	0	633	63
3	0	0	0	0	630	63
4	0	0	0	0	626	63
5	0	0	0	0	629	63
6	0	0	0	0	633	63
7	0	0	0	0	629	63
8	0	0	0	0	625	62
9	0	0	0	0	629	62
10	0	0	0	0	634	63
11	0	0	0	0	629	63
12	0	0	0	0	625	63
13	0	0	0	0	629	63
14	0	0	0	0	633	63
15	0	0	0	0	629	63
0	0	0	0	0	625	63
1	0	0	0	0	630	63
2	0	0	0	0	634	62
3	0	0	0	0	630	63
4	0	0	0	0	625	63
5	0	0	0	0	630	63
6	0	0	0	0	633	63
7	0	0	0	0	629	63
8	0	0	0	0	626	63
9	0	0	0	0	630	62
10	0	0	0	0	634	63
11	0	0	0	0	630	63
12	0	0	0	0	625	63
13	0	0	0	0	630	63
14	0	0	0	0	633	63
15	0	0	0	0	630	62
0	0	0	0	0	625	63
1	0	0	0	0	629	63
2	0	0	0	0	632	63
3	0	0	0	0	631	63
4	0	0	0	0	625	63
5	0	0	0	0	626	63
6	0	0	0	0	633	63
7	0	0	0	0	635	62
8	0	0	0	0	621	63
9	0	0	0	0	629	63
10	0	0	0	0	636	62
11	0	0	0	0	630	63
12	0	0	0	0	623	63
13	0	0	0	0	629	63
14	0	0	0	0	636	63
15	0	0	0	0	629	63
0	0	0	0	0	624	63
1	0	0	0	0	630	63
2	0	0	0	0	634	62
3	0	0	0	0	628	63
4	0	0	0	0	625	63
5	0	0	0	0	630	63
6	0	0	0	0	633	62
7	0	0	0	0	629	63
8	0	0	0	0	625	63
9	0	0	0	0	630	62
10	0	0	0	0	633	63
11	0	0	0	0	629	63
12	0	0	0	0	625	63
13	0	0	0	0	630	62
14	0	0	0	0	633	63
15	0	0	0	0	629	63
0	0	0	0	0	625	63
1	0	0	0	0	629	63
2	0	0	0	0	633	63
3	0	0	0	0	630	63
4	0	0	0	0	625	63
5	0	0	0	0	629	63
6	0	0	0	0	634	63
7	0	0	0	0	629	63
8	0	0	0	0	625	62
9	0	0	0	0	629	63
10	0	0	0	0	633	62
11	0	0	0	0	630	62
12	0	0	0	0	625	63
13	0	0	0	0	629	63
14	0	0	0	0	633	62
15	0	0	0	0	629	63
0	0	0	0	0	625	62
1	0	0	0	0	629	62
2	0	0	0	0	633	63
3	0	0	0	0	630	63
4	0	0	0	0	625	63
5	0	0	0	0	629	63
6	0	0	0	0	634	62
7	0	0	0	0	630	62
8	0	0	0	0	625	63
9	0	0	0	0	629	63
10	0	0	0	0	633	63
11	0	0	0	0	629	62
12	0	0	0	0	625	63
13	0	0	0	0	629	63
14	0	0	0	0	633	62
15	0	0	0	0	630	62
0	0	0	0	0	625	62
1	0	0	0	0	629	62
2	0	0	0	0	633	63
3	0	0	0	0	630	63
4	0	0	0	0	625	63
5	0	0	0	0	629	62
6	0	0	0	0	634	63
7	0	0	0	0	629	63
8	0	0	0	0	625	62
9	0	0	0	0	629	62
10	0	0	0	0	633	63
11	0	0	0	0	628	63
12	0	0	0	0	625	63
13	0	0	0	0	628	63
14	0	0	0	0	634	62
15	0	0	0	0	630	63
0	0	0	0	0	624	62
1	0	0	0	0	629	62
2	0	0	0	0	634	62
3	0	0	0	0	630	62
4	0	0	0	0	625	63
5	0	0	0	0	630	62
6	0	0	0	0	633	62
7	0	0	0	0	629	62
8	0	0	0	0	625	62
9	0	0	0	0	629	62
10	0	0	0	0	634	62
11	0	0	0	0	629	62
12	0	0	0	0	625	63
13	0	0	0	0	629	63
14	0	0	0	0	633	63
15	0	0	0	0	630	62
0	0	0	0	0	625	63
1	0	0	0	0	629	63
2	0	0	0	0	633	62
3	0	0	0	0	630	62
4	0	0	0	0	625	62
5	0	0	0	0	630	62
6	0	0	0	0	633	62
7	0	0	0	0	630	62
8	0	0	0	0	625	62
9	0	0	0	0	629	63
10	0	0	0	0	633	63
11	0	0	0	0	629	62
12	0	0	0	0	625	63
13	0	0	0	0	629	63
14	0	0	0	0	633	63
15	0	0	0	0	630	63
0	0	0	0	0	625	63
1	0	0	0	0	629	62
2	0	0	0	0	633	63
3	0	0	0	0	629	63
4	0	0	0	0	625	63
5	0	0	0	0	630	63
6	0	0	0	0	633	63
7	0	0	0	0	629	62
8	0	0	0	0	625	63
9	0	0	0	0	630	63
10	0	0	0	0	633	63
11	0	0	0	0	629	62
12	0	0	0	0	625	62
13	0	0	0	0	630	62
14	0	0	0	0	633	62
15	0	0	0	0	629	62
0	0	0	0	0	625	62
1	0	0	0	0	630	62
2	0	0	0	0	633	62
3	0	0	0	0	630	62
4	0	0	0	0	625	62
5	0	0	0	0	629	62
6	0	0	0	0	633	62
7	0	0	0	0	629	62
8	0	0	0	0	626	62
9	0	0	0	0	630	62
10	0	0	0	0	632	62
11	0	0	0	0	629	62
12	0	0	0	0	624	62
13	0	0	0	0	629	62
14	0	0	0	0	632	62
15	0	0	0	0	630	62
0	0	0	0	0	625	62
1	0	0	0	0	628	62
2	0	0	0	0	633	62
3	0	0	0	0	630	62
4	0	0	0	0	625	62
5	0	0	0	0	629	61
6	0	0	0	0	633	61
7	0	0	0	0	629	61
8	0	0	0	0	625	61
9	0	0	0	0	630	61
10	0	0	0	0	634	61
11	0	0	0	0	630	61
12	0	0	0	0	624	61
13	0	0	0	0	630	61
14	0	0	0	0	633	61
15	0	0	0	0	628	61
0	0	0	0	0	625	61
1	0	0	0	0	629	61
2	0	0	0	0	633	61
3	0	0	0	0	630	61
4	0	0	0	0	625	61
5	0	0	0	0	629	61
6	0	0	0	0	633	61
7	0	0	0	0	629	61
8	0	0	0	0	626	61
9	0	0	0	0	629	61
10	0	0	0	0	634	61
11	0	0	0	0	630	61
12	0	0	0	0	625	60
13	0	0	0	0	630	60
14	0	0	0	0	633	60
15	0	0	0	0	629	60
0	0	0	0	0	625	60
1	0	0	0	0	629	60
2	0	0	0	0	633	60
3	0	0	0	0	630	60
4	0	0	0	0	624	60
5	0	0	0	0	628	60
6	0	0	0	0	633	60
7	0	0	0	0	629	60
8	0	0	0	0	625	60
9	0	0	0	0	628	60
10	0	0	0	0	633	60
11	0	0	0	0	629	59
12	0	0	0	0	624	59
13	0	0	0	0	629	60
14	0	0	0	0	634	59
15	0	0	0	0	629	59
0	0	0	0	0	625	59
1	0	0	0	0	629	59
2	0	0	0	0	634	59
3	0	0	0	0	629	59
4	0	0	0	0	626	59
5	0	0	0	0	630	59
6	0	0	0	0	633	58
7	0	0	0	0	630	59
8	0	0	0	0	626	59
9	0	0	0	0	630	58
10	0	0	0	0	633	59
11	0	0	0	0	629	59
12	0	0	0	0	626	58
13	0	0	0	0	629	58
14	0	0	0	0	633	59
15	0	0	0	0	629	58
0	0	0	0	0	625	58
1	0	0	0	0	629	57
2	0	0	0	0	633	57
3	0	0	0	0	630	57
4	0	0	0	0	625	57
5	0	0	0	0	629	57
6	0	0	0	0	633	57
7	0	0	0	0	629	57
8	0	0	0	0	625	56
9	0	0	0	0	630	56
10	0	0	0	0	633	56
11	0	0	0	0	630	56
12	0	0	0	0	625	56
13	0	0	0	0	629	56
14	0	0	0	0	633	57
15	0	0	0	0	629	57
0	0	0	0	0	625	57
1	0	0	0	0	630	58
2	0	0	0	0	633	58
3	0	0	0	0	629	58
4	0	0	0	0	625	58
5	0	0	0	0	629	59
6	0	0	0	0	633	59
7	0	0	0	0	630	59
8	0	0	0	0	625	59
9	0	0	0	0	630	59
10	0	0	0	0	635	59
11	0	0	0	0	628	59
12	0	0	0	0	626	59
13	0	0	0	0	629	59
14	0	0	0	0	633	59
15	0	0	0	0	629	59
0	0	0	0	0	626	59
1	0	0	0	0	628	59
2	0	0	0	0	633	59
3	0	0	0	0	630	59
4	0	0	0	0	626	59
5	0	0	0	0	629	59
6	0	0	0	0	633	59
7	0	0	0	0	629	59
8	0	0	0	0	625	59
9	0	0	0	0	629	60
10	0	0	0	0	633	59
11	0	0	0	0	629	60
12	0	0	0	0	625	59
13	0	0	0	0	629	59
14	0	0	0	0	633	59
15	0	0	0	0	629	59
0	0	0	0	0	625	59
1	0	0	0	0	629	59
2	0	0	0	0	634	59
3	0	0	0	0	629	59
4	0	0	0	0	625	59
5	0	0	0	0	629	59
6	0	0	0	0	633	59
7	0	0	0	0	630	59
8	0	0	0	0	625	59
9	0	0	0	0	629	59
10	0	0	0	0	633	59
11	0	0	0	0	628	59
12	0	0	0	0	626	59
13	0	0	0	0	630	59
14	0	0	0	0	632	59
15	0	0	0	0	628	59
0	0	0	0	0	624	59
1	0	0	0	0	630	59
2	0	0	0	0	633	59
3	0	0	0	0	629	59
4	0	0	0	0	625	59
5	0	0	0	0	629	59
6	0	0	0	0	634	59
7	0	0	0	0	628	59
8	0	0	0	0	626	59
9	0	0	0	0	629	58
10	0	0	0	0	633	58
11	0	0	0	0	630	58
12	0	0	0	0	625	58
13	0	0	0	0	630	58
14	0	0	0	0	633	58
15	0	0	0	0	629	58
0	0	0	0	0	624	58
1	0	0	0	0	629	58
2	0	0	0	0	633	58
3	0	0	0	0	629	58
4	0	0	0	0	625	58
5	0	0	0	0	630	58
6	0	0	0	0	633	58
7	0	0	0	0	630	58
8	0	0	0	0	624	58
9	0	0	0	0	629	58
10	0	0	0	0	634	58
11	0	0	0	0	628	58
12	0	0	0	0	625	58
13	0	0	0	0	630	58
14	0	0	0	0	632	58
15	0	0	0	0	630	57
0	0	0	0	0	626	58
1	0	0	0	0	628	57
2	0	0	0	0	633	57
3	0	0	0	0	629	57
4	0	0	0	0	625	58
5	0	0	0	0	629	58
6	0	0	0	0	633	57
7	0	0	0	0	630	58
8	0	0	0	0	626	57
9	0	0	0	0	628	58
10	0	0	0	0	633	57
11	0	0	0	0	630	57
12	0	0	0	0	626	58
13	0	0	0	0	629	58
14	0	0	0	0	633	57
15	0	0	0	0	629	57
0	0	0	0	0	625	57
1	0	0	0	0	629	57
2	0	0	0	0	633	57
3	0	0	0	0	630	57
4	0	0	0	0	625	57
5	0	0	0	0	630	57
6	0	0	0	0	634	57
7	0	0	0	0	629	57
8	0	0	0	0	625	57
9	0	0	0	0	630	56
10	0	0	0	0	634	57
11	0	0	0	0	629	57
12	0	0	0	0	624	57
13	0	0	0	0	630	57
14	0	0	0	0	633	57
15	0	0	0	0	629	57
0	0	0	0	0	626	57
1	0	0	0	0	629	57
2	0	0	0	0	633	57
3	0	0	0	0	628	57
4	0	0	0	0	624	57
5	0	0	0	0	629	57
6	0	0	0	0	632	57
7	0	0	0	0	629	56
8	0	0	0	0	625	57
9	0	0	0	0	629	57
10	0	0	0	0	633	56
11	0	0	0	0	628	56
12	0	0	0	0	625	56
13	0	0	0	0	630	56
14	0	0	0	0	634	56
15	0	0	0	0	629	56
0	0	0	0	0	626	56
1	0	0	0	0	629	56
2	0	0	0	0	634	56
3	0	0	0	0	628	56
4	0	0	0	0	626	56
5	0	0	0	0	629	56
6	0	0	0	0	633	56
7	0	0	0	0	627	56
8	0	0	0	0	625	56
9	0	0	0	0	628	56
10	0	0	0	0	633	56
11	0	0	0	0	630	56
12	0	0	0	0	625	56
13	0	0	0	0	630	56
14	0	0	0	0	634	56
15	0	0	0	0	630	56
0	0	0	0	0	625	56
1	0	0	0	0	629	56
2	0	0	0	0	634	56
3	0	0	0	0	628	56
4	0	0	0	0	627	56
5	0	0	0	0	630	56
6	0	0	0	0	632	56
7	0	0	0	0	629	56
8	0	0	0	0	625	56
9	0	0	0	0	630	56
10	0	0	0	0	632	56
11	0	0	0	0	630	56
12	0	0	0	0	625	56
13	0	0	0	0	629	57
14	0	0	0	0	633	57
15	0	0	0	0	628	57
0	0	0	0	0	624	57
1	0	0	0	0	631	57
2	0	0	0	0	635	57
3	0	0	0	0	630	57
4	0	0	0	0	625	56
5	0	0	0	0	630	56
6	0	0	0	0	635	57
7	0	0	0	0	628	57
8	0	0	0	0	625	57
9	0	0	0	0	629	57
10	0	0	0	0	632	57
11	0	0	0	0	629	57
12	0	0	0	0	626	57
13	0	0	0	0	627	57
14	0	0	0	0	631	57
15	0	0	0	0	630	57
0	0	0	0	0	625	57
1	0	0	0	0	630	57
2	0	0	0	0	635	57
3	0	0	0	0	630	57
4	0	0	0	0	626	57
5	0	0	0	0	629	57
6	0	0	0	0	634	57
7	0	0	0	0	630	56
8	0	0	0	0	624	56
9	0	0	0	0	629	56
10	0	0	0	0	633	56
11	0	0	0	0	629	56
12	0	0	0	0	625	51
13	0	0	0	0	630	51
14	0	0	0	0	633	52
15	0	0	0	0	629	52
0	0	0	0	0	624	52
1	0	0	0	0	629	52
2	0	0	0	0	633	53
3	0	0	0	0	629	52
4	0	0	0	0	625	53
5	0	0	0	0	629	53
6	0	0	0	0	633	53
7	0	0	0	0	629	54
8	0	0	0	0	625	54
9	0	0	0	0	629	54
10	0	0	0	0	633	54
11	0	0	0	0	629	54
12	0	0	0	0	625	54
13	0	0	0	0	629	54
14	0	0	0	0	633	54
15	0	0	0	0	629	54
0	0	0	0	0	625	54
1	0	0	0	0	630	54
2	0	0	0	0	633	53
3	0	0	0	0	629	54
4	0	0	0	0	626	53
5	0	0	0	0	629	53
6	0	0	0	0	633	54
7	0	0	0	0	630	54
8	0	0	0	0	626	54
9	0	0	0	0	629	54
10	0	0	0	0	633	54
11	0	0	0	0	629	53
12	0	0	0	0	625	54
13	0	0	0	0	630	54
14	0	0	0	0	633	54
15	0	0	0	0	629	54
0	0	0	0	0	625	54
1	0	0	0	0	629	54
2	0	0	0	0	633	54
3	0	0	0	0	629	54
4	0	0	0	0	625	54
5	0	0	0	0	628	54
6	0	0	0	0	633	54
7	0	0	0	0	629	54
8	0	0	0	0	625	54
9	0	0	0	0	630	54
10	0	0	0	0	633	54
11	0	0	0	0	629	54
12	0	0	0	0	625	54
13	0	0	0	0	629	54
14	0	0	0	0	633	54
15	0	0	0	0	629	54
0	0	0	0	0	626	54
1	0	0	0	0	630	54
2	0	0	0	0	634	54
3	0	0	0	0	629	54
4	0	0	0	0	625	55
5	0	0	0	0	629	55
6	0	0	0	0	633	55
7	0	0	0	0	629	55
8	0	0	0	0	624	55
9	0	0	0	0	629	55
10	0	0	0	0	632	55
11	0	0	0	0	630	56
12	0	0	0	0	625	56
13	0	0	0	0	630	57
14	0	0	0	0	635	57
15	0	0	0	0	630	56
0	0	0	0	0	625	57
1	0	0	0	0	630	57
2	0	0	0	0	634	57
3	0	0	0	0	630	57
4	0	0	0	0	626	57
5	0	0	0	0	631	57
6	0	0	0	0	634	57
7	0	0	0	0	630	58
8	0	0	0	0	625	58
9	0	0	0	0	627	58
10	0	0	0	0	633	58
11	0	0	0	0	631	58
12	0	0	0	0	624	59
13	0	0	0	0	629	59
14	0	0	0	0	634	59
15	0	0	0	0	629	59
0	0	0	0	0	625	59
1	0	0	0	0	630	59
2	0	0	0	0	634	59
3	0	0	0	0	629	59
4	0	0	0	0	625	60
5	0	0	0	0	629	59
6	0	0	0	0	633	60
7	0	0	0	0	629	60
8	0	0	0	0	625	60
9	0	0	0	0	630	60
10	0	0	0	0	633	60
11	0	0	0	0	629	60
12	0	0	0	0	626	61
13	0	0	0	0	629	61
14	0	0	0	0	634	61
15	0	0	0	0	629	61
0	0	0	0	0	625	61
1	0	0	0	0	630	61
2	0	0	0	0	633	62
3	0	0	0	0	629	62
4	0	0	0	0	625	62
5	0	0	0	0	630	62
6	0	0	0	0	634	62
7	0	0	0	0	629	62
8	0	0	0	0	625	62
9	0	0	0	0	628	62
10	0	0	0	0	633	62
11	0	0	0	0	629	62
12	0	0	0	0	626	62
13	0	0	0	0	630	63
14	0	0	0	0	633	63
15	0	0	0	0	630	63
0	0	0	0	0	625	63
1	0	0	0	0	629	63
2	0	0	0	0	633	63
3	0	0	0	0	630	63
4	0	0	0	0	625	63
5	0	0	0	0	630	63
6	0	0	0	0	633	63
7	0	0	0	0	630	63
8	0	0	0	0	626	63
9	0	0	0	0	628	64
10	0	0	0	0	633	64
11	0	0	0	0	630	63
12	0	0	0	0	625	64
13	0	0	0	0	628	64
14	0	0	0	0	632	64
15	0	0	0	0	630	63
0	0	0	0	0	625	64
1	0	0	0	0	630	64
2	0	0	0	0	634	64
3	0	0	0	0	629	63
4	0	0	0	0	625	64
5	0	0	0	0	629	64
6	0	0	0	0	634	64
7	0	0	0	0	629	64
8	0	0	0	0	625	64
9	0	0	0	0	630	64
10	0	0	0	0	633	64
11	0	0	0	0	629	65
12	0	0	0	0	625	65
13	0	0	0	0	629	65
14	0	0	0	0	633	65
15	0	0	0	0	629	65
0	0	0	0	0	625	65
1	0	0	0	0	630	65
2	0	0	0	0	632	65
3	0	0	0	0	629	65
4	0	0	0	0	624	65
5	0	0	0	0	630	65
6	0	0	0	0	634	65
7	0	0	0	0	628	65
8	0	0	0	0	625	64
9	0	0	0	0	630	64
10	0	0	0	0	632	64
11	0	0	0	0	629	65
12	0	0	0	0	625	65
13	0	0	0	0	630	64
14	0	0	0	0	633	64
15	0	0	0	0	631	64
0	0	0	0	0	626	63
1	0	0	0	0	630	63
2	0	0	0	0	633	63
3	0	0	0	0	630	63
4	0	0	0	0	626	63
5	0	0	0	0	630	63
6	0	0	0	0	634	63
7	0	0	0	0	629	63
8	0	0	0	0	624	64
9	0	0	0	0	629	63
10	0	0	0	0	634	63
11	0	0	0	0	630	63
12	0	0	0	0	625	62
13	0	0	0	0	629	62
14	0	0	0	0	633	62
15	0	0	0	0	629	62
0	0	0	0	0	625	62
1	0	0	0	0	629	62
2	0	0	0	0	633	62
3	0	0	0	0	630	61
4	0	0	0	0	625	61
5	0	0	0	0	629	60
6	0	0	0	0	633	60
7	0	0	0	0	630	59
8	0	0	0	0	625	59
9	0	0	0	0	628	59
10	0	0	0	0	632	59
11	0	0	0	0	630	59
12	0	0	0	0	625	59
13	0	0	0	0	629	60
14	0	0	0	0	633	60
15	0	0	0	0	630	59
0	0	0	0	0	625	59
1	0	0	0	0	629	58
2	0	0	0	0	633	58
3	0	0	0	0	629	58
4	0	0	0	0	625	58
5	0	0	0	0	629	58
6	0	0	0	0	633	58
7	0	0	0	0	629	58
8	0	0	0	0	625	58
9	0	0	0	0	629	58
10	0	0	0	0	633	58
11	0	0	0	0	630	58
12	0	0	0	0	625	58
13	0	0	0	0	629	58
14	0	0	0	0	633	58
15	0	0	0	0	629	58
0	0	0	0	0	624	59
1	0	0	0	0	629	58
2	0	0	0	0	633	58
3	0	0	0	0	629	58
4	0	0	0	0	625	58
5	0	0	0	0	629	58
6	0	0	0	0	634	57
7	0	0	0	0	630	57
8	0	0	0	0	624	57
9	0	0	0	0	626	57
10	0	0	0	0	635	57
11	0	0	0	0	629	58
12	0	0	0	0	625	58
13	0	0	0	0	630	58
14	0	0	0	0	634	57
15	0	0	0	0	628	57
0	0	0	0	0	624	57
1	0	0	0	0	630	57
2	0	0	0	0	633	57
3	0	0	0	0	629	57
4	0	0	0	0	625	58
5	0	0	0	0	629	58
6	0	0	0	0	633	58
7	0	0	0	0	628	58
8	0	0	0	0	624	59
9	0	0	0	0	629	59
10	0	0	0	0	632	59
11	0	0	0	0	627	59
12	0	0	0	0	625	58
13	0	0	0	0	629	57
14	0	0	0	0	633	57
15	0	0	0	0	629	58
0	0	0	0	0	625	60
1	0	0	0	0	631	61
2	0	0	0	0	634	63
3	0	0	0	0	628	65
4	0	0	0	0	627	66
5	0	0	0	0	631	66
6	0	0	0	0	634	66
7	0	0	0	0	628	65
8	0	0	0	0	625	63
9	0	0	0	0	630	62
10	0	0	0	0	633	61
11	0	0	0	0	630	60
12	0	0	0	0	625	61
13	0	0	0	0	630	61
14	0	0	0	0	633	61
15	0	0	0	0	630	61
0	0	0	0	0	625	61
1	0	0	0	0	629	62
2	0	0	0	0	633	61
3	0	0	0	0	628	62
4	0	0	0	0	624	61
5	0	0	0	0	629	62
6	0	0	0	0	633	62
7	0	0	0	0	630	63
8	0	0	0	0	625	62
9	0	0	0	0	629	62
10	0	0	0	0	634	61
11	0	0	0	0	629	60
12	0	0	0	0	624	59
13	0	0	0	0	629	58
14	0	0	0	0	634	58
15	0	0	0	0	629	58
0	0	0	0	0	625	58
1	0	0	0	0	630	59
2	0	0	0	0	633	60
3	0	0	0	0	629	61
4	0	0	0	0	625	62
5	0	0	0	0	630	63
6	0	0	0	0	634	65
7	0	0	0	0	631	65
8	0	0	0	0	625	66
9	0	0	0	0	629	67
10	0	0	0	0	633	68
11	0	0	0	0	629	69
12	0	0	0	0	624	69
13	0	0	0	0	629	70
14	0	0	0	0	633	69
15	0	0	0	0	630	69
0	0	0	0	0	626	69
1	0	0	0	0	628	68
2	0	0	0	0	633	68
3	0	0	0	0	629	67
4	0	0	0	0	625	67
5	0	0	0	0	629	66
6	0	0	0	0	633	66
7	0	0	0	0	630	65
8	0	0	0	0	625	64
9	0	0	0	0	630	63
10	0	0	0	0	633	63
11	0	0	0	0	630	62
12	0	0	0	0	626	61
13	0	0	0	0	629	61
14	0	0	0	0	633	61
15	0	0	0	0	629	60
0	0	0	0	0	625	59
1	0	0	0	0	629	59
2	0	0	0	0	633	58
3	0	0	0	0	629	57
4	0	0	0	0	625	55
5	0	0	0	0	629	53
6	0	0	0	0	633	53
7	0	0	0	0	629	52
8	0	0	0	0	625	51
9	0	0	0	0	629	51
10	0	0	0	0	633	51
11	0	0	0	0	629	51
12	0	0	0	0	625	50
13	0	0	0	0	630	50
14	0	0	0	0	633	50
15	0	0	0	0	629	50
0	0	0	0	0	624	50
1	0	0	0	0	628	49
2	0	0	0	0	634	49
3	0	0	0	0	629	49
4	0	0	0	0	625	49
5	0	0	0	0	629	48
6	0	0	0	0	633	49
7	0	0	0	0	629	48
8	0	0	0	0	625	48
9	0	0	0	0	630	48
10	0	0	0	0	634	48
11	0	0	0	0	629	47
12	0	0	0	0	625	47
13	0	0	0	0	629	47
14	0	0	0	0	633	47
15	0	0	0	0	630	47
0	0	0	0	0	626	48
1	0	0	0	0	629	48
2	0	0	0	0	633	48
3	0	0	0	0	630	48
4	0	0	0	0	625	48
5	0	0	0	0	629	48
6	0	0	0	0	633	48
7	0	0	0	0	629	48
8	0	0	0	0	625	48
9	0	0	0	0	630	48
10	0	0	0	0	636	48
11	0	0	0	0	631	48
12	0	0	0	0	625	48
13	0	0	0	0	629	48
14	0	0	0	0	635	48
15	0	0	0	0	629	48
0	0	0	0	0	625	48
1	0	0	0	0	629	48
2	0	0	0	0	634	48
3	0	0	0	0	630	48
4	0	0	0	0	626	49
5	0	0	0	0	629	49
6	0	0	0	0	633	49
7	0	0	0	0	629	49
8	0	0	0	0	626	49
9	0	0	0	0	629	49
10	0	0	0	0	632	49
11	0	0	0	0	632	49
12	0	0	0	0	622	49
13	0	0	0	0	629	49
14	0	0	0	0	634	48
15	0	0	0	0	630	48
0	0	0	0	0	624	48
1	0	0	0	0	630	47
2	0	0	0	0	634	48
3	0	0	0	0	629	48
4	0	0	0	0	625	48
5	0	0	0	0	630	47
6	0	0	0	0	634	48
7	0	0	0	0	630	47
8	0	0	0	0	625	47
9	0	0	0	0	630	46
10	0	0	0	0	637	45
11	0	0	0	0	632	44
12	0	0	0	0	624	43
13	0	0	0	0	626	43
14	0	0	0	0	633	42
15	0	0	0	0	628	41
0	0	0	0	0	624	39
1	0	0	0	0	629	38
2	0	0	0	0	633	37
3	0	0	0	0	629	35
4	0	0	0	0	626	34
5	0	0	0	0	630	34
6	0	0	0	0	633	33
7	0	0	0	0	629	33
8	0	0	0	0	625	33
9	0	0	0	0	629	33
10	0	0	0	0	634	33
11	0	0	0	0	629	33
12	0	0	0	0	626	33
13	0	0	0	0	629	32
14	0	0	0	0	633	31
15	0	0	0	0	630	31
0	0	0	0	0	625	32
1	0	0	0	0	629	32
2	0	0	0	0	633	33
3	0	0	0	0	629	34
4	0	0	0	0	626	34
5	0	0	0	0	631	35
6	0	0	0	0	633	34
7	0	0	0	0	630	34
8	0	0	0	0	626	33
9	0	0	0	0	630	32
10	0	0	0	0	634	31
11	0	0	0	0	630	31
12	0	0	0	0	625	30
13	0	0	0	0	628	29
14	0	0	0	0	635	28
15	0	0	0	0	629	26
0	0	0	0	0	626	25
1	0	0	0	0	630	26
2	0	0	0	0	634	27
3	0	0	0	0	630	28
4	0	0	0	0	626	28
5	0	0	0	0	629	28
6	0	0	0	0	633	28
7	0	0	0	0	630	28
8	0	0	0	0	625	28
9	0	0	0	0	630	30
10	0	0	0	0	634	32
11	0	0	0	0	629	35
12	0	0	0	0	626	38
13	0	0	0	0	629	43
14	0	0	0	0	633	46
15	0	0	0	0	630	46
0	0	0	0	0	625	47
1	0	0	0	0	630	47
2	0	0	0	0	633	47
3	0	0	0	0	630	47
4	0	0	0	0	625	48
5	0	0	0	0	630	48
6	0	0	0	0	634	48
7	0	0	0	0	630	48
8	0	0	0	0	626	49
9	0	0	0	0	630	49
10	0	0	0	0	634	50
11	0	0	0	0	630	50
12	0	0	0	0	625	50
13	0	0	0	0	629	50
14	0	0	0	0	633	50
15	0	0	0	0	630	50
0	0	0	0	0	625	49
1	0	0	0	0	629	49
2	0	0	0	0	633	49
3	0	0	0	0	630	49
4	0	0	0	0	626	49
5	0	0	0	0	629	50
6	0	0	0	0	634	50
7	0	0	0	0	630	50
8	0	0	0	0	625	50
9	0	0	0	0	630	50
10	0	0	0	0	633	50
11	0	0	0	0	630	49
12	0	0	0	0	625	49
13	0	0	0	0	629	48
14	0	0	0	0	634	48
15	0	0	0	0	628	48
0	0	0	0	0	625	48
1	0	0	0	0	633	49
2	0	0	0	0	635	49
3	0	0	0	0	624	50
4	0	0	0	0	625	50
5	0	0	0	0	626	50
6	0	0	0	0	636	49
7	0	0	0	0	629	50
8	0	0	0	0	625	50
9	0	0	0	0	632	50
10	0	0	0	0	632	50
11	0	0	0	0	630	50
12	0	0	0	0	626	50
13	0	0	0	0	630	49
14	0	0	0	0	634	50
15	0	0	0	0	629	51
0	0	0	0	0	625	51
1	0	0	0	0	630	51
2	0	0	0	0	623	51
3	0	0	0	0	628	51
4	0	0	0	0	627	51
5	0	0	0	0	630	51
6	0	0	0	0	632	51
7	0	0	0	0	628	50
8	0	0	0	0	625	50
9	0	0	0	0	629	50
10	0	0	0	0	635	50
11	0	0	0	0	630	50
12	0	0	0	0	626	50
13	0	0	0	0	630	49
14	0	0	0	0	633	50
15	0	0	0	0	630	50
0	0	0	0	0	625	49
1	0	0	0	0	630	49
2	0	0	0	0	632	50
3	0	0	0	0	628	49
4	0	0	0	0	624	49
5	0	0	0	0	631	49
6	0	0	0	0	633	50
7	0	0	0	0	630	49
8	0	0	0	0	626	50
9	0	0	0	0	628	49
10	0	0	0	0	633	49
11	0	0	0	0	629	49
12	0	0	0	0	626	49
13	0	0	0	0	630	49
14	0	0	0	0	636	49
15	0	0	0	0	629	49
0	0	0	0	0	621	49
1	0	0	0	0	632	49
2	0	0	0	0	635	49
3	0	0	0	0	631	48
4	0	0	0	0	627	48
5	0	0	0	0	630	48
6	0	0	0	0	635	48
7	0	0	0	0	626	48
8	0	0	0	0	627	48
9	0	0	0	0	627	48
10	0	0	0	0	634	48
11	0	0	0	0	630	48
12	0	0	0	0	626	49
13	0	0	0	0	629	49
14	0	0	0	0	633	49
15	0	0	0	0	630	49
0	0	0	0	0	625	49
1	0	0	0	0	630	49
2	0	0	0	0	634	49
3	0	0	0	0	630	50
4	0	0	0	0	625	50
5	0	0	0	0	629	50
6	0	0	0	0	634	50
7	0	0	0	0	630	50
8	0	0	0	0	625	51
9	0	0	0	0	629	51
10	0	0	0	0	634	51
11	0	0	0	0	630	51
12	0	0	0	0	625	51
13	0	0	0	0	629	51
14	0	0	0	0	633	52
15	0	0	0	0	630	51
0	0	0	0	0	625	49
1	0	0	0	0	630	47
2	0	0	0	0	633	46
3	0	0	0	0	630	47
4	0	0	0	0	625	48
5	0	0	0	0	629	48
6	0	0	0	0	633	49
7	0	0	0	0	629	50
8	0	0	0	0	625	50
9	0	0	0	0	630	51
10	0	0	0	0	633	51
11	0	0	0	0	629	51
12	0	0	0	0	626	51
13	0	0	0	0	630	52
14	0	0	0	0	633	52
15	0	0	0	0	630	53
0	0	0	0	0	624	53
1	0	0	0	0	629	53
2	0	0	0	0	633	53
3	0	0	0	0	629	54
4	0	0	0	0	625	54
5	0	0	0	0	629	54
6	0	0	0	0	633	55
7	0	0	0	0	629	55
8	0	0	0	0	625	57
9	0	0	0	0	630	62
10	0	0	0	0	634	64
11	0	0	0	0	629	64
12	0	0	0	0	625	64
13	0	0	0	0	629	64
14	0	0	0	0	633	63
15	0	0	0	0	629	63
0	0	0	0	0	624	63
1	0	0	0	0	629	62
2	0	0	0	0	633	61
3	0	0	0	0	629	60
4	0	0	0	0	626	59
5	0	0	0	0	629	59
6	0	0	0	0	634	57
7	0	0	0	0	629	56
8	0	0	0	0	625	55
9	0	0	0	0	629	55
10	0	0	0	0	633	54
11	0	0	0	0	629	54
12	0	0	0	0	625	53
13	0	0	0	0	629	53
14	0	0	0	0	633	52
15	0	0	0	0	629	51
0	0	0	0	0	625	50
1	0	0	0	0	629	50
2	0	0	0	0	633	49
3	0	0	0	0	629	49
4	0	0	0	0	625	49
5	0	0	0	0	629	49
6	0	0	0	0	633	49
7	0	0	0	0	629	48
8	0	0	0	0	625	47
9	0	0	0	0	629	46
10	0	0	0	0	634	45
11	0	0	0	0	628	44
12	0	0	0	0	625	44
13	0	0	0	0	630	44
14	0	0	0	0	633	43
15	0	0	0	0	629	42
0	0	0	0	0	622	41
1	0	0	0	0	630	39
2	0	0	0	0	633	38
3	0	0	0	0	629	33
4	0	0	0	0	625	29
5	0	0	0	0	630	26
6	0	0	0	0	633	25
7	0	0	0	0	629	24
8	0	0	0	0	626	23
9	0	0	0	0	629	21
10	0	0	0	0	633	20
11	0	0	0	0	629	19
12	0	0	0	0	625	18
13	0	0	0	0	629	18
14	0	0	0	0	633	17
15	0	0	0	0	630	17
0	0	0	0	0	625	16
1	0	0	0	0	629	16
2	0	0	0	0	634	16
3	0	0	0	0	630	16
4	0	0	0	0	626	16
5	0	0	0	0	629	15
6	0	0	0	0	633	15
7	0	0	0	0	629	15
8	0	0	0	0	624	15
9	0	0	0	0	629	15
10	0	0	0	0	633	15
11	0	0	0	0	629	15
12	0	0	0	0	625	15
13	0	0	0	0	629	15
14	0	0	0	0	633	15
15	0	0	0	0	630	15
0	0	0	0	0	624	15
1	0	0	0	0	629	15
2	0	0	0	0	633	15
3	0	0	0	0	629	15
4	0	0	0	0	625	15
5	0	0	0	0	629	15
6	0	0	0	0	634	15
7	0	0	0	0	629	15
8	0	0	0	0	625	15
9	0	0	0	0	629	15
10	0	0	0	0	633	15
11	0	0	0	0	629	16
12	0	0	0	0	624	16
13	0	0	0	0	629	18
14	0	0	0	0	634	21
15	0	0	0	0	629	35
0	0	0	0	0	625	41
1	0	0	0	0	630	44
2	0	0	0	0	632	47
3	0	0	0	0	630	50
4	0	0	0	0	625	52
5	0	0	0	0	629	55
6	0	0	0	0	633	57
7	0	0	0	0	629	59
8	0	0	0	0	624	61
9	0	0	0	0	630	62
10	0	0	0	0	633	63
11	0	0	0	0	629	64
12	0	0	0	0	625	65
13	0	0	0	0	629	66
14	0	0	0	0	633	66
15	0	0	0	0	629	67
0	0	0	0	0	625	67
1	0	0	0	0	629	67
2	0	0	0	0	633	68
3	0	0	0	0	629	68
4	0	0	0	0	625	68
5	0	0	0	0	629	69
6	0	0	0	0	633	69
7	0	0	0	0	629	70
8	0	0	0	0	625	70
9	0	0	0	0	629	70
10	0	0	0	0	633	71
11	0	0	0	0	629	71
12	0	0	0	0	625	71
13	0	0	0	0	629	71
14	0	0	0	0	633	71
15	0	0	0	0	628	71
0	0	0	0	0	626	71
1	0	0	0	0	629	72
2	0	0	0	0	634	72
3	0	0	0	0	629	72
4	0	0	0	0	625	72
5	0	0	0	0	630	72
6	0	0	0	0	634	72
7	0	0	0	0	628	72
8	0	0	0	0	625	72
9	0	0	0	0	629	72
10	0	0	0	0	634	72
11	0	0	0	0	630	73
12	0	0	0	0	625	73
13	0	0	0	0	629	73
14	0	0	0	0	633	73
15	0	0	0	0	629	73
0	0	0	0	0	626	73
1	0	0	0	0	630	73
2	0	0	0	0	633	73
3	0	0	0	0	630	73
4	0	0	0	0	625	73
5	0	0	0	0	630	74
6	0	0	0	0	633	74
7	0	0	0	0	629	73
8	0	0	0	0	625	73
9	0	0	0	0	629	74
10	0	0	0	0	633	74
11	0	0	0	0	629	73
12	0	0	0	0	625	73
13	0	0	0	0	629	73
14	0	0	0	0	633	73
15	0	0	0	0	630	73
0	0	0	0	0	625	73
1	0	0	0	0	629	73
2	0	0	0	0	633	73
3	0	0	0	0	630	73
4	0	0	0	0	625	73
5	0	0	0	0	629	73
6	0	0	0	0	633	73
7	0	0	0	0	628	73
8	0	0	0	0	625	73
9	0	0	0	0	629	73
10	0	0	0	0	633	73
11	0	0	0	0	630	72
12	0	0	0	0	625	73
13	0	0	0	0	629	73
14	0	0	0	0	632	73
15	0	0	0	0	628	73
0	0	0	0	0	625	73
1	0	0	0	0	630	73
2	0	0	0	0	633	73
3	0	0	0	0	629	72
4	0	0	0	0	625	73
5	0	0	0	0	630	72
6	0	0	0	0	634	72
7	0	0	0	0	629	72
8	0	0	0	0	624	72
9	0	0	0	0	629	72
10	0	0	0	0	634	73
11	0	0	0	0	629	73
12	0	0	0	0	625	73
13	0	0	0	0	629	73
14	0	0	0	0	633	73
15	0	0	0	0	629	73
0	0	0	0	0	625	74
1	0	0	0	0	629	74
2	0	0	0	0	633	74
3	0	0	0	0	629	74
4	0	0	0	0	625	74
5	0	0	0	0	630	74
6	0	0	0	0	633	74
7	0	0	0	0	629	74
8	0	0	0	0	624	73
9	0	0	0	0	629	74
10	0	0	0	0	633	74
11	0	0	0	0	630	74
12	0	0	0	0	625	73
13	0	0	0	0	629	73
14	0	0	0	0	633	73
15	0	0	0	0	630	73
0	0	0	0	0	624	73
1	0	0	0	0	629	73
2	0	0	0	0	633	73
3	0	0	0	0	629	73
4	0	0	0	0	625	73
5	0	0	0	0	630	73
6	0	0	0	0	633	73
7	0	0	0	0	629	73
8	0	0	0	0	625	73
9	0	0	0	0	629	73
10	0	0	0	0	633	73
11	0	0	0	0	629	73
12	0	0	0	0	625	72
13	0	0	0	0	629	72
14	0	0	0	0	633	72
15	0	0	0	0	629	71
0	0	0	0	0	625	71
1	0	0	0	0	629	71
2	0	0	0	0	633	71
3	0	0	0	0	629	71
4	0	0	0	0	625	70
5	0	0	0	0	630	69
6	0	0	0	0	633	70
7	0	0	0	0	629	69
8	0	0	0	0	625	69
9	0	0	0	0	629	68
10	0	0	0	0	633	68
11	0	0	0	0	629	68
12	0	0	0	0	625	67
13	0	0	0	0	630	67
14	0	0	0	0	633	67
15	0	0	0	0	629	67
0	0	0	0	0	625	67
1	0	0	0	0	629	66
2	0	0	0	0	633	66
3	0	0	0	0	629	65
4	0	0	0	0	625	64
5	0	0	0	0	629	64
6	0	0	0	0	633	63
7	0	0	0	0	629	63
8	0	0	0	0	625	63
9	0	0	0	0	629	63
10	0	0	0	0	633	62
11	0	0	0	0	629	62
12	0	0	0	0	625	61
13	0	0	0	0	629	61
14	0	0	0	0	633	61
15	0	0	0	0	629	61
0	0	0	0	0	625	60
1	0	0	0	0	629	61
2	0	0	0	0	634	60
3	0	0	0	0	629	60
4	0	0	0	0	625	59
5	0	0	0	0	629	59
6	0	0	0	0	633	59
7	0	0	0	0	629	58
8	0	0	0	0	625	57
9	0	0	0	0	629	56
10	0	0	0	0	633	55
11	0	0	0	0	629	54
12	0	0	0	0	625	54
13	0	0	0	0	629	53
14	0	0	0	0	633	53
15	0	0	0	0	630	53
0	0	0	0	0	625	52
1	0	0	0	0	629	52
2	0	0	0	0	633	51
3	0	0	0	0	629	50
4	0	0	0	0	626	49
5	0	0	0	0	630	49
6	0	0	0	0	633	48
7	0	0	0	0	629	45
8	0	0	0	0	626	34
9	0	0	0	0	628	28
10	0	0	0	0	633	25
11	0	0	0	0	629	24
12	0	0	0	0	625	24
13	0	0	0	0	629	24
14	0	0	0	0	633	25
15	0	0	0	0	629	25
0	0	0	0	0	625	25
1	0	0	0	0	629	23
2	0	0	0	0	633	22
3	0	0	0	0	629	20
4	0	0	0	0	624	19
5	0	0	0	0	629	17
6	0	0	0	0	633	16
7	0	0	0	0	630	15
8	0	0	0	0	625	15
9	0	0	0	0	629	15
10	0	0	0	0	633	15
11	0	0	0	0	629	15
12	0	0	0	0	625	15
13	0	0	0	0	629	15
14	0	0	0	0	633	15
15	0	0	0	0	629	15
0	0	0	0	0	625	15
1	0	0	0	0	629	15
2	0	0	0	0	634	15
3	0	0	0	0	630	14
4	0	0	0	0	625	14
5	0	0	0	0	629	14
6	0	0	0	0	633	14
7	0	0	0	0	629	14
8	0	0	0	0	624	14
9	0	0	0	0	630	14
10	0	0	0	0	634	13
11	0	0	0	0	629	14
12	0	0	0	0	625	14
13	0	0	0	0	629	14
14	0	0	0	0	634	14
15	0	0	0	0	629	14
0	0	0	0	0	624	14
1	0	0	0	0	629	14
2	0	0	0	0	633	14
3	0	0	0	0	629	14
4	0	0	0	0	625	14
5	0	0	0	0	629	14
6	0	0	0	0	633	14
7	0	0	0	0	630	14
8	0	0	0	0	625	14
9	0	0	0	0	629	14
10	0	0	0	0	634	14
11	0	0	0	0	629	14
12	0	0	0	0	625	14
13	0	0	0	0	629	14
14	0	0	0	0	633	14
15	0	0	0	0	629	14
0	0	0	0	0	625	14
1	0	0	0	0	629	14
2	0	0	0	0	633	14
3	0	0	0	0	629	14
4	0	0	0	0	625	14
5	0	0	0	0	628	14
6	0	0	0	0	633	14
7	0	0	0	0	629	14
8	0	0	0	0	625	14
9	0	0	0	0	629	14
10	0	0	0	0	633	14
11	0	0	0	0	629	14
12	0	0	0	0	625	14
13	0	0	0	0	629	14
14	0	0	0	0	632	14
15	0	0	0	0	629	14
0	0	0	0	0	625	14
1	0	0	0	0	629	14
2	0	0	0	0	633	14
3	0	0	0	0	630	14
4	0	0	0	0	625	14
5	0	0	0	0	629	14
6	0	0	0	0	633	14
7	0	0	0	0	629	15
8	0	0	0	0	625	15
9	0	0	0	0	629	15
10	0	0	0	0	633	15
11	0	0	0	0	628	15
12	0	0	0	0	626	15
13	0	0	0	0	629	15
14	0	0	0	0	633	15
15	0	0	0	0	629	15
0	0	0	0	0	625	15
1	0	0	0	0	629	15
2	0	0	0	0	633	14
3	0	0	0	0	630	15
4	0	0	0	0	625	14
5	0	0	0	0	629	14
6	0	0	0	0	633	14
7	0	0	0	0	629	14
8	0	0	0	0	625	14
9	0	0	0	0	629	14
10	0	0	0	0	633	14
11	0	0	0	0	629	14
12	0	0	0	0	625	14
13	0	0	0	0	629	14
14	0	0	0	0	633	15
15	0	0	0	0	629	15
0	0	0	0	0	625	15
1	0	0	0	0	629	14
2	0	0	0	0	633	14
3	0	0	0	0	629	14
4	0	0	0	0	625	15
5	0	0	0	0	630	15
6	0	0	0	0	633	15
7	0	0	0	0	629	14
8	0	0	0	0	625	14
9	0	0	0	0	629	15
10	0	0	0	0	633	14
11	0	0	0	0	628	14
12	0	0	0	0	624	14
13	0	0	0	0	629	14
14	0	0	0	0	633	14
15	0	0	0	0	630	14
0	0	0	0	0	625	13
1	0	0	0	0	629	14
2	0	0	0	0	633	14
3	0	0	0	0	629	14
4	0	0	0	0	624	14
5	0	0	0	0	630	14
6	0	0	0	0	633	15
7	0	0	0	0	629	15
8	0	0	0	0	625	16
9	0	0	0	0	628	19
10	0	0	0	0	633	38
11	0	0	0	0	629	53
12	0	0	0	0	625	58
13	0	0	0	0	629	61
14	0	0	0	0	633	63
15	0	0	0	0	628	63
0	0	0	0	0	625	64
1	0	0	0	0	629	65
2	0	0	0	0	633	65
3	0	0	0	0	629	66
4	0	0	0	0	625	67
5	0	0	0	0	630	67
6	0	0	0	0	633	67
7	0	0	0	0	629	68
8	0	0	0	0	625	68
9	0	0	0	0	629	69
10	0	0	0	0	633	69
11	0	0	0	0	629	70
12	0	0	0	0	624	70
13	0	0	0	0	629	71
14	0	0	0	0	633	71
15	0	0	0	0	630	71
0	0	0	0	0	626	71
1	0	0	0	0	629	71
2	0	0	0	0	633	71
3	0	0	0	0	630	72
4	0	0	0	0	625	72
5	0	0	0	0	629	72
6	0	0	0	0	633	72
7	0	0	0	0	629	71
8	0	0	0	0	625	72
9	0	0	0	0	629	71
10	0	0	0	0	633	71
11	0	0	0	0	629	71
12	0	0	0	0	625	72
13	0	0	0	0	630	72
14	0	0	0	0	633	72
15	0	0	0	0	629	72
0	0	0	0	0	625	72
1	0	0	0	0	629	72
2	0	0	0	0	633	72
3	0	0	0	0	629	72
4	0	0	0	0	624	72
5	0	0	0	0	628	72
6	0	0	0	0	633	72
7	0	0	0	0	629	72
8	0	0	0	0	625	72
9	0	0	0	0	629	72
10	0	0	0	0	633	72
11	0	0	0	0	629	72
12	0	0	0	0	626	72
13	0	0	0	0	629	72
14	0	0	0	0	633	72
15	0	0	0	0	629	72
0	0	0	0	0	625	72
1	0	0	0	0	629	72
2	0	0	0	0	633	72
3	0	0	0	0	629	72
4	0	0	0	0	625	72
5	0	0	0	0	630	71
6	0	0	0	0	633	72
7	0	0	0	0	628	72
8	0	0	0	0	625	72
9	0	0	0	0	629	72
10	0	0	0	0	633	72
11	0	0	0	0	629	72
12	0	0	0	0	626	71
13	0	0	0	0	629	72
14	0	0	0	0	633	72
15	0	0	0	0	629	72
0	0	0	0	0	625	71
1	0	0	0	0	629	72
2	0	0	0	0	633	72
3	0	0	0	0	629	71
4	0	0	0	0	625	71
5	0	0	0	0	629	72
6	0	0	0	0	633	71
7	0	0	0	0	629	71
8	0	0	0	0	625	72
9	0	0	0	0	630	72
10	0	0	0	0	633	72
11	0	0	0	0	629	72
12	0	0	0	0	625	72
13	0	0	0	0	629	72
14	0	0	0	0	633	72
15	0	0	0	0	630	72
0	0	0	0	0	625	72
1	0	0	0	0	629	72
2	0	0	0	0	634	73
3	0	0	0	0	630	72
4	0	0	0	0	624	73
5	0	0	0	0	629	73
6	0	0	0	0	633	73
7	0	0	0	0	629	72
8	0	0	0	0	625	72
9	0	0	0	0	629	72
10	0	0	0	0	633	71
11	0	0	0	0	629	71
12	0	0	0	0	625	70
13	0	0	0	0	630	70
14	0	0	0	0	633	70
15	0	0	0	0	629	69
0	0	0	0	0	625	68
1	0	0	0	0	629	68
2	0	0	0	0	633	68
3	0	0	0	0	629	68
4	0	0	0	0	625	68
5	0	0	0	0	629	68
6	0	0	0	0	633	68
7	0	0	0	0	629	68
8	0	0	0	0	625	68
9	0	0	0	0	630	68
10	0	0	0	0	632	68
11	0	0	0	0	629	68
12	0	0	0	0	625	68
13	0	0	0	0	629	68
14	0	0	0	0	633	68
15	0	0	0	0	628	68
0	0	0	0	0	624	68
1	0	0	0	0	629	68
2	0	0	0	0	634	67
3	0	0	0	0	629	68
4	0	0	0	0	625	68
5	0	0	0	0	629	68
6	0	0	0	0	633	67
7	0	0	0	0	629	68
8	0	0	0	0	625	68
9	0	0	0	0	630	67
10	0	0	0	0	633	68
11	0	0	0	0	629	68
12	0	0	0	0	625	68
13	0	0	0	0	629	68
14	0	0	0	0	633	68
15	0	0	0	0	629	68
0	0	0	0	0	625	68
1	0	0	0	0	629	67
2	0	0	0	0	633	68
3	0	0	0	0	629	67
4	0	0	0	0	625	67
5	0	0	0	0	629	67
6	0	0	0	0	634	67
7	0	0	0	0	630	67
8	0	0	0	0	624	67
9	0	0	0	0	629	67
10	0	0	0	0	633	67
11	0	0	0	0	630	67
12	0	0	0	0	625	67
13	0	0	0	0	628	67
14	0	0	0	0	633	67
15	0	0	0	0	628	67
0	0	0	0	0	624	67
1	0	0	0	0	629	67
2	0	0	0	0	632	67
3	0	0	0	0	629	67
4	0	0	0	0	625	67
5	0	0	0	0	630	67
6	0	0	0	0	633	67
7	0	0	0	0	629	67
8	0	0	0	0	625	66
9	0	0	0	0	630	66
10	0	0	0	0	633	66
11	0	0	0	0	629	66
12	0	0	0	0	625	66
13	0	0	0	0	629	66
14	0	0	0	0	634	66
15	0	0	0	0	629	66
0	0	0	0	0	625	65
1	0	0	0	0	629	65
2	0	0	0	0	633	65
3	0	0	0	0	629	65
4	0	0	0	0	624	65
5	0	0	0	0	628	65
6	0	0	0	0	633	64
7	0	0	0	0	630	64
8	0	0	0	0	625	63
9	0	0	0	0	629	64
10	0	0	0	0	632	64
11	0	0	0	0	629	63
12	0	0	0	0	625	63
13	0	0	0	0	631	62
14	0	0	0	0	633	63
15	0	0	0	0	630	63
0	0	0	0	0	624	62
1	0	0	0	0	630	62
2	0	0	0	0	633	61
3	0	0	0	0	629	61
4	0	0	0	0	625	61
5	0	0	0	0	629	61
6	0	0	0	0	633	60
7	0	0	0	0	629	60
8	0	0	0	0	625	60
9	0	0	0	0	629	60
10	0	0	0	0	633	59
11	0	0	0	0	629	59
12	0	0	0	0	625	59
13	0	0	0	0	629	59
14	0	0	0	0	634	58
15	0	0	0	0	630	59
0	0	0	0	0	625	58
1	0	0	0	0	629	58
2	0	0	0	0	633	59
3	0	0	0	0	629	58
4	0	0	0	0	625	59
5	0	0	0	0	629	58
6	0	0	0	0	633	58
7	0	0	0	0	629	58
8	0	0	0	0	625	58
9	0	0	0	0	629	58
10	0	0	0	0	634	58
11	0	0	0	0	628	58
12	0	0	0	0	625	58
13	0	0	0	0	629	58
14	0	0	0	0	633	58
15	0	0	0	0	630	58
0	0	0	0	0	625	58
1	0	0	0	0	629	58
2	0	0	0	0	633	58
3	0	0	0	0	629	58
4	0	0	0	0	624	58
5	0	0	0	0	629	756
6	0	0	0	0	633	762
7	0	0	0	0	630	768
8	0	0	0	0	624	772
9	0	0	0	0	629	778
10	0	0	0	0	633	783
11	0	0	0	0	628	789
12	0	0	0	0	626	796
13	0	0	0	0	628	804
14	0	0	0	0	633	814
15	0	0	0	0	629	824
0	0	0	0	0	625	836
1	0	0	0	0	629	847
2	0	0	0	0	633	860
3	0	0	0	0	629	872
4	0	0	0	0	625	885
5	0	0	0	0	630	897
6	0	0	0	0	633	908
7	0	0	0	0	630	918
8	0	0	0	0	625	927
9	0	0	0	0	629	937
10	0	0	0	0	633	947
11	0	0	0	0	629	954
12	0	0	0	0	625	959
13	0	0	0	0	629	963
14	0	0	0	0	633	965
15	0	0	0	0	629	967
0	0	0	0	0	625	967
1	0	0	0	0	629	968
2	0	0	0	0	633	969
3	0	0	0	0	629	970
4	0	0	0	0	625	970
5	0	0	0	0	630	970
6	0	0	0	0	634	971
7	0	0	0	0	629	971
8	0	0	0	0	625	970
9	0	0	0	0	629	970
10	0	0	0	0	633	969
11	0	0	0	0	629	968
12	0	0	0	0	625	968
13	0	0	0	0	629	967
14	0	0	0	0	633	966
15	0	0	0	0	629	965
0	0	0	0	0	625	965
1	0	0	0	0	630	964
2	0	0	0	0	633	964
3	0	0	0	0	629	963
4	0	0	0	0	625	963
5	0	0	0	0	630	963
6	0	0	0	0	633	963
7	0	0	0	0	629	964
8	0	0	0	0	625	964
9	0	0	0	0	629	965
10	0	0	0	0	633	965
11	0	0	0	0	629	966
12	0	0	0	0	625	967
13	0	0	0	0	630	968
14	0	0	0	0	633	969
15	0	0	0	0	629	969
0	0	0	0	0	625	969
1	0	0	0	0	629	969
2	0	0	0	0	633	969
3	0	0	0	0	629	969
4	0	0	0	0	625	970
5	0	0	0	0	629	970
6	0	0	0	0	633	970
7	0	0	0	0	629	970
8	0	0	0	0	625	971
9	0	0	0	0	629	971
10	0	0	0	0	633	972
11	0	0	0	0	629	972
12	0	0	0	0	625	972
13	0	0	0	0	629	971
14	0	0	0	0	633	971
15	0	0	0	0	629	971
0	0	0	0	0	625	970
1	0	0	0	0	629	969
2	0	0	0	0	633	969
3	0	0	0	0	629	969
4	0	0	0	0	624	969
5	0	0	0	0	629	968
6	0	0	0	0	632	968
7	0	0	0	0	629	967
8	0	0	0	0	625	966
9	0	0	0	0	630	965
10	0	0	0	0	633	964
11	0	0	0	0	629	963
12	0	0	0	0	625	961
13	0	0	0	0	629	960
14	0	0	0	0	633	958
15	0	0	0	0	629	957
0	0	0	0	0	625	955
1	0	0	0	0	629	953
2	0	0	0	0	633	950
3	0	0	0	0	629	947
4	0	0	0	0	625	943
5	0	0	0	0	629	939
6	0	0	0	0	634	935
7	0	0	0	0	629	931
8	0	0	0	0	625	925
9	0	0	0	0	629	920
10	0	0	0	0	633	915
11	0	0	0	0	629	909
12	0	0	0	0	625	903
13	0	0	0	0	630	896
14	0	0	0	0	633	888
15	0	0	0	0	629	880
0	0	0	0	0	625	872
1	0	0	0	0	629	865
2	0	0	0	0	633	860
3	0	0	0	0	629	854
4	0	0	0	0	625	848
5	0	0	0	0	630	843
6	0	0	0	0	633	837
7	0	0	0	0	629	831
8	0	0	0	0	625	824
9	0	0	0	0	629	818
10	0	0	0	0	633	811
11	0	0	0	0	629	805
12	0	0	0	0	625	799
13	0	0	0	0	629	793
14	0	0	0	0	634	787
15	0	0	0	0	629	782
0	0	0	0	0	626	778
1	0	0	0	0	628	775
2	0	0	0	0	633	773
3	0	0	0	0	630	772
4	0	0	0	0	625	772
5	0	0	0	0	629	772
6	0	0	0	0	633	771
7	0	0	0	0	630	770
8	0	0	0	0	624	769
9	0	0	0	0	628	768
10	0	0	0	0	633	766
11	0	0	0	0	629	766
12	0	0	0	0	625	765
13	0	0	0	0	629	764
14	0	0	0	0	633	764
15	0	0	0	0	629	765
0	0	0	0	0	625	766
1	0	0	0	0	629	768
2	0	0	0	0	634	771
3	0	0	0	0	629	774
4	0	0	0	0	625	775
5	0	0	0	0	629	776
6	0	0	0	0	633	776
7	0	0	0	0	629	776
8	0	0	0	0	625	776
9	0	0	0	0	629	776
10	0	0	0	0	634	777
11	0	0	0	0	629	779
12	0	0	0	0	625	779
13	0	0	0	0	629	781
14	0	0	0	0	634	781
15	0	0	0	0	628	781
0	0	0	0	0	625	781
1	0	0	0	0	629	780
2	0	0	0	0	633	780
3	0	0	0	0	629	779
4	0	0	0	0	625	778
5	0	0	0	0	629	778
6	0	0	0	0	633	778
7	0	0	0	0	629	779
8	0	0	0	0	625	780
9	0	0	0	0	629	780
10	0	0	0	0	632	780
11	0	0	0	0	629	778
12	0	0	0	0	625	775
13	0	0	0	0	629	769
14	0	0	0	0	633	763
15	0	0	0	0	628	756
0	0	0	0	0	625	749
1	0	0	0	0	629	743
2	0	0	0	0	633	737
3	0	0	0	0	629	732
4	0	0	0	0	625	727
5	0	0	0	0	628	723
6	0	0	0	0	634	719
7	0	0	0	0	629	716
8	0	0	0	0	625	712
9	0	0	0	0	629	710
10	0	0	0	0	633	707
11	0	0	0	0	629	705
12	0	0	0	0	625	703
13	0	0	0	0	630	701
14	0	0	0	0	633	700
15	0	0	0	0	628	698
0	0	0	0	0	625	697
1	0	0	0	0	629	695
2	0	0	0	0	633	693
3	0	0	0	0	629	691
4	0	0	0	0	625	689
5	0	0	0	0	630	686
6	0	0	0	0	633	684
7	0	0	0	0	629	683
8	0	0	0	0	625	682
9	0	0	0	0	629	681
10	0	0	0	0	633	681
11	0	0	0	0	629	681
12	0	0	0	0	625	682
13	0	0	0	0	630	682
14	0	0	0	0	633	683
15	0	0	0	0	628	683
0	0	0	0	0	624	684
1	0	0	0	0	629	684
2	0	0	0	0	633	684
3	0	0	0	0	630	684
4	0	0	0	0	625	686
5	0	0	0	0	629	687
6	0	0	0	0	633	689
7	0	0	0	0	629	690
8	0	0	0	0	625	692
9	0	0	0	0	630	693
10	0	0	0	0	633	694
11	0	0	0	0	628	694
12	0	0	0	0	624	694
13	0	0	0	0	628	694
14	0	0	0	0	633	694
15	0	0	0	0	631	694
0	0	0	0	0	625	695
1	0	0	0	0	628	695
2	0	0	0	0	633	696
3	0	0	0	0	630	695
4	0	0	0	0	625	695
5	0	0	0	0	628	695
6	0	0	0	0	633	695
7	0	0	0	0	630	694
8	0	0	0	0	625	694
9	0	0	0	0	628	695
10	0	0	0	0	634	694
11	0	0	0	0	629	695
12	0	0	0	0	625	695
13	0	0	0	0	629	696
14	0	0	0	0	633	697
15	0	0	0	0	630	698
0	0	0	0	0	625	698
1	0	0	0	0	630	699
2	0	0	0	0	633	699
3	0	0	0	0	629	699
4	0	0	0	0	625	698
5	0	0	0	0	629	698
6	0	0	0	0	633	697
7	0	0	0	0	628	696
8	0	0	0	0	625	696
9	0	0	0	0	629	696
10	0	0	0	0	633	696
11	0	0	0	0	629	696
12	0	0	0	0	625	695
13	0	0	0	0	630	695
14	0	0	0	0	633	694
15	0	0	0	0	628	692
0	0	0	0	0	625	56
1	0	0	0	0	629	57
2	0	0	0	0	633	57
3	0	0	0	0	629	57
4	0	0	0	0	625	57
5	0	0	0	0	630	57
6	0	0	0	0	632	57
7	0	0	0	0	629	57
8	0	0	0	0	625	57
9	0	0	0	0	630	57
10	0	0	0	0	632	58
11	0	0	0	0	629	58
12	0	0	0	0	625	57
13	0	0	0	0	630	58
14	0	0	0	0	634	58
15	0	0	0	0	628	59
0	0	0	0	0	625	59
1	0	0	0	0	628	59
2	0	0	0	0	634	59
3	0	0	0	0	629	59
4	0	0	0	0	625	60
5	0	0	0	0	630	60
6	0	0	0	0	633	60
7	0	0	0	0	629	61
8	0	0	0	0	625	61
9	0	0	0	0	629	61
10	0	0	0	0	633	61
11	0	0	0	0	629	62
12	0	0	0	0	625	62
13	0	0	0	0	628	62
14	0	0	0	0	633	62
15	0	0	0	0	630	63
0	0	0	0	0	625	63
1	0	0	0	0	629	63
2	0	0	0	0	633	63
3	0	0	0	0	630	63
4	0	0	0	0	625	63
5	0	0	0	0	629	63
6	0	0	0	0	633	63
7	0	0	0	0	629	63
8	0	0	0	0	625	63
9	0	0	0	0	629	64
10	0	0	0	0	633	64
11	0	0	0	0	629	64
12	0	0	0	0	625	63
13	0	0	0	0	629	64
14	0	0	0	0	633	64
15	0	0	0	0	629	65
0	0	0	0	0	625	65
1	0	0	0	0	629	65
2	0	0	0	0	633	65
3	0	0	0	0	629	65
4	0	0	0	0	625	65
5	0	0	0	0	629	65
6	0	0	0	0	633	66
7	0	0	0	0	629	66
8	0	0	0	0	625	65
9	0	0	0	0	629	66
10	0	0	0	0	633	66
11	0	0	0	0	629	66
12	0	0	0	0	625	66
13	0	0	0	0	629	66
14	0	0	0	0	633	66
15	0	0	0	0	630	66
0	0	0	0	0	625	66
1	0	0	0	0	628	66
2	0	0	0	0	633	66
3	0	0	0	0	629	66
4	0	0	0	0	625	66
5	0	0	0	0	630	66
6	0	0	0	0	633	66
7	0	0	0	0	629	66
8	0	0	0	0	625	67
9	0	0	0	0	629	66
10	0	0	0	0	633	67
11	0	0	0	0	629	66
12	0	0	0	0	625	66
13	0	0	0	0	629	66
14	0	0	0	0	633	66
15	0	0	0	0	628	66
0	0	0	0	0	625	66
1	0	0	0	0	630	66
2	0	0	0	0	633	65
3	0	0	0	0	629	66
4	0	0	0	0	625	66
5	0	0	0	0	629	66
6	0	0	0	0	634	65
7	0	0	0	0	629	66
8	0	0	0	0	625	65
9	0	0	0	0	629	65
10	0	0	0	0	633	66
11	0	0	0	0	630	65
12	0	0	0	0	625	66
13	0	0	0	0	628	66
14	0	0	0	0	633	66
15	0	0	0	0	631	66
0	0	0	0	0	627	67
1	0	0	0	0	630	66
2	0	0	0	0	633	65
3	0	0	0	0	630	66
4	0	0	0	0	625	65
5	0	0	0	0	629	73
6	0	0	0	0	634	65
7	0	0	0	0	629	65
8	0	0	0	0	625	65
9	0	0	0	0	630	65
10	0	0	0	0	635	65
11	0	0	0	0	630	65
12	0	0	0	0	627	65
13	0	0	0	0	629	65
14	0	0	0	0	633	65
15	0	0	0	0	628	65
0	0	0	0	0	625	64
1	0	0	0	0	629	65
2	0	0	0	0	633	65
3	0	0	0	0	627	65
4	0	0	0	0	622	65
5	0	0	0	0	628	65
6	0	0	0	0	633	65
7	0	0	0	0	630	65
8	0	0	0	0	626	65
9	0	0	0	0	629	65
10	0	0	0	0	634	65
11	0	0	0	0	629	65
12	0	0	0	0	626	65
13	0	0	0	0	630	65
14	0	0	0	0	633	65
15	0	0	0	0	630	64
0	0	0	0	0	625	65
1	0	0	0	0	630	65
2	0	0	0	0	633	65
3	0	0	0	0	629	65
4	0	0	0	0	626	64
5	0	0	0	0	630	64
6	0	0	0	0	633	64
7	0	0	0	0	629	64
8	0	0	0	0	625	65
9	0	0	0	0	629	65
10	0	0	0	0	634	65
11	0	0	0	0	630	65
12	0	0	0	0	625	65
13	0	0	0	0	629	65
14	0	0	0	0	633	64
15	0	0	0	0	629	65
0	0	0	0	0	625	65
1	0	0	0	0	629	65
2	0	0	0	0	633	65
3	0	0	0	0	630	65
4	0	0	0	0	625	65
5	0	0	0	0	629	65
6	0	0	0	0	634	65
7	0	0	0	0	630	65
8	0	0	0	0	624	65
9	0	0	0	0	630	65
10	0	0	0	0	633	65
11	0	0	0	0	629	65
12	0	0	0	0	626	65
13	0	0	0	0	629	64
14	0	0	0	0	633	64
15	0	0	0	0	629	65
0	0	0	0	0	625	64
1	0	0	0	0	628	65
2	0	0	0	0	633	65
3	0	0	0	0	629	65
4	0	0	0	0	625	65
5	0	0	0	0	629	64
6	0	0	0	0	633	64
7	0	0	0	0	628	64
8	0	0	0	0	625	64
9	0	0	0	0	628	64
10	0	0	0	0	633	64
11	0	0	0	0	629	64
12	0	0	0	0	625	64
13	0	0	0	0	630	63
14	0	0	0	0	633	64
15	0	0	0	0	628	64
0	0	0	0	0	625	64
1	0	0	0	0	629	64
2	0	0	0	0	634	64
3	0	0	0	0	629	64
4	0	0	0	0	625	64
5	0	0	0	0	629	64
6	0	0	0	0	633	64
7	0	0	0	0	629	64
8	0	0	0	0	625	64
9	0	0	0	0	629	64
10	0	0	0	0	633	64
11	0	0	0	0	629	64
12	0	0	0	0	625	64
13	0	0	0	0	630	64
14	0	0	0	0	633	64
15	0	0	0	0	629	64
0	0	0	0	0	625	64
1	0	0	0	0	629	64
2	0	0	0	0	633	64
3	0	0	0	0	629	63
4	0	0	0	0	625	63
5	0	0	0	0	629	63
6	0	0	0	0	633	63
7	0	0	0	0	629	63
8	0	0	0	0	625	63
9	0	0	0	0	630	63
10	0	0	0	0	634	63
11	0	0	0	0	629	63
12	0	0	0	0	625	63
13	0	0	0	0	629	64
14	0	0	0	0	633	63
15	0	0	0	0	629	63
0	0	0	0	0	625	63
1	0	0	0	0	628	63
2	0	0	0	0	633	63
3	0	0	0	0	629	63
4	0	0	0	0	625	63
5	0	0	0	0	629	63
6	0	0	0	0	633	63
7	0	0	0	0	630	63
8	0	0	0	0	625	64
9	0	0	0	0	629	64
10	0	0	0	0	633	64
11	0	0	0	0	629	64
12	0	0	0	0	625	64
13	0	0	0	0	630	64
14	0	0	0	0	633	64
15	0	0	0	0	629	64
0	0	0	0	0	624	64
1	0	0	0	0	629	64
2	0	0	0	0	633	64
3	0	0	0	0	629	64
4	0	0	0	0	625	64
5	0	0	0	0	629	63
6	0	0	0	0	633	64
7	0	0	0	0	629	64
8	0	0	0	0	625	64
9	0	0	0	0	630	63
10	0	0	0	0	633	64
11	0	0	0	0	629	64
12	0	0	0	0	625	64
13	0	0	0	0	629	64
14	0	0	0	0	634	64
15	0	0	0	0	629	64
0	0	0	0	0	625	64
1	0	0	0	0	628	64
2	0	0	0	0	633	64
3	0	0	0	0	629	64
4	0	0	0	0	625	63
5	0	0	0	0	629	64
6	0	0	0	0	633	64
7	0	0	0	0	628	64
8	0	0	0	0	625	64
9	0	0	0	0	630	64
10	0	0	0	0	633	64
11	0	0	0	0	629	64
12	0	0	0	0	626	64
13	0	0	0	0	629	64
14	0	0	0	0	633	64
15	0	0	0	0	629	64
0	0	0	0	0	626	64
1	0	0	0	0	629	64
2	0	0	0	0	633	64
3	0	0	0	0	630	63
4	0	0	0	0	625	63
5	0	0	0	0	629	64
6	0	0	0	0	633	63
7	0	0	0	0	630	64
8	0	0	0	0	625	64
9	0	0	0	0	629	64
10	0	0	0	0	634	63
11	0	0	0	0	629	63
12	0	0	0	0	626	63
13	0	0	0	0	630	63
14	0	0	0	0	633	63
15	0	0	0	0	630	63
0	0	0	0	0	625	63
1	0	0	0	0	629	62
2	0	0	0	0	633	62
3	0	0	0	0	630	61
4	0	0	0	0	625	61
5	0	0	0	0	630	61
6	0	0	0	0	634	60
7	0	0	0	0	630	60
8	0	0	0	0	626	59
9	0	0	0	0	629	59
10	0	0	0	0	634	58
11	0	0	0	0	630	58
12	0	0	0	0	626	58
13	0	0	0	0	630	57
14	0	0	0	0	633	57
15	0	0	0	0	629	57
0	0	0	0	0	625	57
1	0	0	0	0	629	57
2	0	0	0	0	633	57
3	0	0	0	0	629	56
4	0	0	0	0	625	56
5	0	0	0	0	630	56
6	0	0	0	0	633	56
7	0	0	0	0	630	56
8	0	0	0	0	625	56
9	0	0	0	0	630	56
10	0	0	0	0	634	56
11	0	0	0	0	630	56
12	0	0	0	0	625	56
13	0	0	0	0	629	56
14	0	0	0	0	634	56
15	0	0	0	0	630	55
0	0	0	0	0	625	55
1	0	0	0	0	629	55
2	0	0	0	0	633	55
3	0	0	0	0	630	55
4	0	0	0	0	625	55
5	0	0	0	0	630	55
6	0	0	0	0	634	55
7	0	0	0	0	629	55
8	0	0	0	0	625	55
9	0	0	0	0	623	55
10	0	0	0	0	636	55
11	0	0	0	0	630	55
12	0	0	0	0	626	55
13	0	0	0	0	631	55
14	0	0	0	0	635	55
15	0	0	0	0	631	55
0	0	0	0	0	626	55
1	0	0	0	0	631	55
2	0	0	0	0	636	54
3	0	0	0	0	632	54
4	0	0	0	0	628	54
5	0	0	0	0	632	54
6	0	0	0	0	637	54
7	0	0	0	0	634	54
8	0	0	0	0	632	54
9	0	0	0	0	636	54
10	0	0	0	0	642	54
11	0	0	0	0	637	54
12	0	0	0	0	633	54
13	0	0	0	0	638	54
14	0	0	0	0	644	54
15	0	0	0	0	640	53
0	0	0	0	0	637	54
1	0	0	0	0	642	53
2	0	0	0	0	647	53
3	0	0	0	0	642	53
4	0	0	0	0	638	53
5	0	0	0	0	642	53
6	0	0	0	0	648	53
7	0	0	0	0	643	52
8	0	0	0	0	638	52
9	0	0	0	0	642	52
10	0	0	0	0	648	52
11	0	0	0	0	644	52
12	0	0	0	0	638	52
13	0	0	0	0	644	52
14	0	0	0	0	648	52
15	0	0	0	0	644	52
0	0	0	0	0	640	52
1	0	0	0	0	643	52
2	0	0	0	0	647	52
3	0	0	0	0	643	52
4	0	0	0	0	639	52
5	0	0	0	0	643	52
6	0	0	0	0	647	52
7	0	0	0	0	643	52
8	0	0	0	0	637	52
9	0	0	0	0	642	53
10	0	0	0	0	645	53
11	0	0	0	0	641	53
12	0	0	0	0	636	53
13	0	0	0	0	641	53
14	0	0	0	0	644	53
15	0	0	0	0	640	53
0	0	0	0	0	636	53
1	0	0	0	0	640	53
2	0	0	0	0	643	53
3	0	0	0	0	639	54
4	0	0	0	0	635	54
5	0	0	0	0	639	54
6	0	0	0	0	643	54
7	0	0	0	0	638	55
8	0	0	0	0	634	55
9	0	0	0	0	637	55
10	0	0	0	0	641	55
11	0	0	0	0	637	56
12	0	0	0	0	633	56
13	0	0	0	0	637	56
14	0	0	0	0	641	56
15	0	0	0	0	636	56
0	0	0	0	0	632	56
1	0	0	0	0	637	56
2	0	0	0	0	640	56
3	0	0	0	0	636	56
4	0	0	0	0	632	56
5	0	0	0	0	636	56
6	0	0	0	0	639	56
7	0	0	0	0	636	56
8	0	0	0	0	631	56
9	0	0	0	0	635	56
10	0	0	0	0	639	56
11	0	0	0	0	636	57
12	0	0	0	0	632	56
13	0	0	0	0	634	57
14	0	0	0	0	639	58
15	0	0	0	0	635	59
0	0	0	0	0	632	58
1	0	0	0	0	635	59
2	0	0	0	0	639	59
3	0	0	0	0	636	59
4	0	0	0	0	631	59
5	0	0	0	0	636	59
6	0	0	0	0	639	59
7	0	0	0	0	635	59
8	0	0	0	0	631	59
9	0	0	0	0	636	59
10	0	0	0	0	640	58
11	0	0	0	0	637	59
12	0	0	0	0	633	58
13	0	0	0	0	638	58
14	0	0	0	0	642	58
15	0	0	0	0	638	58
0	0	0	0	0	634	58
1	0	0	0	0	639	58
2	0	0	0	0	644	58
3	0	0	0	0	641	58
4	0	0	0	0	637	59
5	0	0	0	0	641	59
6	0	0	0	0	647	59
7	0	0	0	0	643	59
8	0	0	0	0	639	59
9	0	0	0	0	643	59
10	0	0	0	0	648	59
11	0	0	0	0	645	59
12	0	0	0	0	641	60
13	0	0	0	0	646	60
14	0	0	0	0	650	60
15	0	0	0	0	647	59
0	0	0	0	0	643	60
1	0	0	0	0	647	60
2	0	0	0	0	652	60
3	0	0	0	0	648	60
4	0	0	0	0	644	60
5	0	0	0	0	649	60
6	0	0	0	0	654	60
7	0	0	0	0	649	60
8	0	0	0	0	645	60
9	0	0	0	0	650	60
10	0	0	0	0	654	61
11	0	0	0	0	650	61
12	0	0	0	0	646	62
13	0	0	0	0	651	63
14	0	0	0	0	654	63
15	0	0	0	0	650	63
0	0	0	0	0	646	63
1	0	0	0	0	651	63
2	0	0	0	0	655	63
3	0	0	0	0	650	64
4	0	0	0	0	647	63
5	0	0	0	0	652	63
6	0	0	0	0	655	63
7	0	0	0	0	650	63
8	0	0	0	0	648	63
9	0	0	0	0	653	63
10	0	0	0	0	656	63
11	0	0	0	0	650	63
12	0	0	0	0	648	63
13	0	0	0	0	652	63
14	0	0	0	0	655	63
15	0	0	0	0	652	63
0	0	0	0	0	648	63
1	0	0	0	0	653	63
2	0	0	0	0	656	63
3	0	0	0	0	652	63
4	0	0	0	0	649	63
5	0	0	0	0	652	63
6	0	0	0	0	657	63
7	0	0	0	0	652	63
8	0	0	0	0	649	63
9	0	0	0	0	652	63
10	0	0	0	0	656	63
11	0	0	0	0	652	63
12	0	0	0	0	648	63
13	0	0	0	0	652	63
14	0	0	0	0	657	63
15	0	0	0	0	653	63
0	0	0	0	0	648	63
1	0	0	0	0	652	63
2	0	0	0	0	659	63
3	0	0	0	0	653	63
4	0	0	0	0	644	63
5	0	0	0	0	655	63
6	0	0	0	0	659	62
7	0	0	0	0	651	63
8	0	0	0	0	646	63
9	0	0	0	0	653	63
10	0	0	0	0	656	63
11	0	0	0	0	652	63
12	0	0	0	0	647	63
13	0	0	0	0	652	63
14	0	0	0	0	656	63
15	0	0	0	0	650	63
0	0	0	0	0	647	63
1	0	0	0	0	654	63
2	0	0	0	0	656	62
3	0	0	0	0	650	63
4	0	0	0	0	647	63
5	0	0	0	0	652	63
6	0	0	0	0	654	62
7	0	0	0	0	654	62
8	0	0	0	0	649	62
9	0	0	0	0	650	62
10	0	0	0	0	654	62
11	0	0	0	0	654	62
12	0	0	0	0	648	63
13	0	0	0	0	650	63
14	0	0	0	0	655	62
15	0	0	0	0	650	63
0	0	0	0	0	647	63
1	0	0	0	0	651	63
2	0	0	0	0	655	63
3	0	0	0	0	650	63
4	0	0	0	0	647	62
5	0	0	0	0	650	63
6	0	0	0	0	654	63
7	0	0	0	0	657	62
8	0	0	0	0	647	63
9	0	0	0	0	655	62
10	0	0	0	0	656	62
11	0	0	0	0	648	62
12	0	0	0	0	641	62
13	0	0	0	0	652	62
14	0	0	0	0	656	62
15	0	0	0	0	649	62
0	0	0	0	0	643	62
1	0	0	0	0	652	62
2	0	0	0	0	655	62
3	0	0	0	0	647	62
4	0	0	0	0	644	62
5	0	0	0	0	649	62
6	0	0	0	0	653	63
7	0	0	0	0	648	63
8	0	0	0	0	645	63
9	0	0	0	0	648	63
10	0	0	0	0	652	63
11	0	0	0	0	649	63
12	0	0	0	0	645	63
13	0	0	0	0	647	63
14	0	0	0	0	650	63
15	0	0	0	0	650	63
0	0	0	0	0	645	63
1	0	0	0	0	647	63
2	0	0	0	0	650	63
3	0	0	0	0	649	63
4	0	0	0	0	643	63
5	0	0	0	0	647	63
6	0	0	0	0	649	63
7	0	0	0	0	646	63
8	0	0	0	0	643	63
9	0	0	0	0	646	63
10	0	0	0	0	651	63
11	0	0	0	0	647	63
12	0	0	0	0	642	63
13	0	0	0	0	647	63
14	0	0	0	0	648	63
15	0	0	0	0	646	63
0	0	0	0	0	644	63
1	0	0	0	0	646	63
2	0	0	0	0	649	63
3	0	0	0	0	646	63
4	0	0	0	0	643	63
5	0	0	0	0	646	63
6	0	0	0	0	651	62
7	0	0	0	0	645	63
8	0	0	0	0	641	63
9	0	0	0	0	648	62
10	0	0	0	0	652	62
11	0	0	0	0	647	63
12	0	0	0	0	641	62
13	0	0	0	0	646	63
14	0	0	0	0	651	63
15	0	0	0	0	647	63
0	0	0	0	0	642	63
1	0	0	0	0	646	63
2	0	0	0	0	654	63
3	0	0	0	0	647	63
4	0	0	0	0	641	64
5	0	0	0	0	647	67
6	0	0	0	0	650	68
7	0	0	0	0	648	68
8	0	0	0	0	644	65
9	0	0	0	0	647	64
10	0	0	0	0	652	63
11	0	0	0	0	648	63
12	0	0	0	0	644	63
13	0	0	0	0	647	63
14	0	0	0	0	651	63
15	0	0	0	0	649	63
0	0	0	0	0	645	62
1	0	0	0	0	647	63
2	0	0	0	0	653	63
3	0	0	0	0	647	63
4	0	0	0	0	644	63
5	0	0	0	0	650	63
6	0	0	0	0	652	62
7	0	0	0	0	647	62
8	0	0	0	0	646	61
9	0	0	0	0	649	62
10	0	0	0	0	652	62
11	0	0	0	0	649	62
12	0	0	0	0	644	62
13	0	0	0	0	649	62
14	0	0	0	0	652	62
15	0	0	0	0	648	61
0	0	0	0	0	647	61
1	0	0	0	0	652	61
2	0	0	0	0	654	61
3	0	0	0	0	647	61
4	0	0	0	0	647	61
5	0	0	0	0	652	61
6	0	0	0	0	654	60
7	0	0	0	0	649	60
8	0	0	0	0	645	60
9	0	0	0	0	649	60
10	0	0	0	0	654	60
11	0	0	0	0	650	60
12	0	0	0	0	645	61
13	0	0	0	0	649	60
14	0	0	0	0	654	60
15	0	0	0	0	649	60
0	0	0	0	0	645	60
1	0	0	0	0	649	60
2	0	0	0	0	654	60
3	0	0	0	0	650	60
4	0	0	0	0	644	60
5	0	0	0	0	651	60
6	0	0	0	0	656	60
7	0	0	0	0	649	60
8	0	0	0	0	644	60
9	0	0	0	0	649	60
10	0	0	0	0	655	60
11	0	0	0	0	650	60
12	0	0	0	0	645	60
13	0	0	0	0	651	60
14	0	0	0	0	653	60
15	0	0	0	0	650	60
0	0	0	0	0	646	60
1	0	0	0	0	651	60
2	0	0	0	0	654	60
3	0	0	0	0	648	60
4	0	0	0	0	646	60
5	0	0	0	0	650	60
6	0	0	0	0	654	60
7	0	0	0	0	650	60
8	0	0	0	0	646	60
9	0	0	0	0	650	60
10	0	0	0	0	654	60
11	0	0	0	0	651	60
12	0	0	0	0	643	60
13	0	0	0	0	650	60
14	0	0	0	0	655	60
15	0	0	0	0	651	59
0	0	0	0	0	647	59
1	0	0	0	0	650	60
2	0	0	0	0	653	60
3	0	0	0	0	651	60
4	0	0	0	0	647	60
5	0	0	0	0	649	60
6	0	0	0	0	655	60
7	0	0	0	0	650	60
8	0	0	0	0	644	60
9	0	0	0	0	648	60
10	0	0	0	0	656	60
11	0	0	0	0	651	60
12	0	0	0	0	646	60
13	0	0	0	0	650	60
14	0	0	0	0	655	60
15	0	0	0	0	651	60
0	0	0	0	0	646	60
1	0	0	0	0	650	60
2	0	0	0	0	655	60
3	0	0	0	0	651	60
4	0	0	0	0	647	60
5	0	0	0	0	651	60
6	0	0	0	0	654	60
7	0	0	0	0	651	60
8	0	0	0	0	646	60
9	0	0	0	0	649	60
10	0	0	0	0	657	59
11	0	0	0	0	651	60
12	0	0	0	0	646	60
13	0	0	0	0	651	60
14	0	0	0	0	655	60
15	0	0	0	0	650	60
0	0	0	0	0	647	60
1	0	0	0	0	651	59
2	0	0	0	0	654	60
3	0	0	0	0	650	60
4	0	0	0	0	646	60
5	0	0	0	0	651	60
6	0	0	0	0	656	60
7	0	0	0	0	651	60
8	0	0	0	0	647	59
9	0	0	0	0	652	59
10	0	0	0	0	655	59
11	0	0	0	0	652	59
12	0	0	0	0	647	59
13	0	0	0	0	651	59
14	0	0	0	0	655	59
15	0	0	0	0	650	60
0	0	0	0	0	648	60
1	0	0	0	0	652	60
2	0	0	0	0	655	60
3	0	0	0	0	652	59
4	0	0	0	0	647	60
5	0	0	0	0	652	60
6	0	0	0	0	655	60
7	0	0	0	0	651	60
8	0	0	0	0	647	60
9	0	0	0	0	651	60
10	0	0	0	0	655	60
11	0	0	0	0	652	59
12	0	0	0	0	647	59
13	0	0	0	0	652	59
14	0	0	0	0	656	59
15	0	0	0	0	652	60
0	0	0	0	0	647	59
1	0	0	0	0	652	59
2	0	0	0	0	655	59
3	0	0	0	0	652	59
4	0	0	0	0	648	59
5	0	0	0	0	652	60
6	0	0	0	0	656	59
7	0	0	0	0	652	59
8	0	0	0	0	648	59
9	0	0	0	0	652	60
10	0	0	0	0	656	60
11	0	0	0	0	653	60
12	0	0	0	0	648	59
13	0	0	0	0	653	60
14	0	0	0	0	657	59
15	0	0	0	0	652	60
0	0	0	0	0	647	60
1	0	0	0	0	652	60
2	0	0	0	0	657	59
3	0	0	0	0	652	59
4	0	0	0	0	648	59
5	0	0	0	0	652	59
6	0	0	0	0	657	59
7	0	0	0	0	653	59
8	0	0	0	0	647	59
9	0	0	0	0	652	59
10	0	0	0	0	656	60
11	0	0	0	0	652	60
12	0	0	0	0	648	60
13	0	0	0	0	653	60
14	0	0	0	0	657	60
15	0	0	0	0	652	60
0	0	0	0	0	649	60
1	0	0	0	0	652	60
2	0	0	0	0	656	60
3	0	0	0	0	653	60
4	0	0	0	0	647	60
5	0	0	0	0	652	60
6	0	0	0	0	657	60
7	0	0	0	0	652	59
8	0	0	0	0	648	59
9	0	0	0	0	652	60
10	0	0	0	0	657	59
11	0	0	0	0	652	59
12	0	0	0	0	647	59
13	0	0	0	0	652	59
14	0	0	0	0	655	60
15	0	0	0	0	652	59
0	0	0	0	0	647	60
1	0	0	0	0	653	59
2	0	0	0	0	656	59
3	0	0	0	0	652	59
4	0	0	0	0	648	60
5	0	0	0	0	652	60
6	0	0	0	0	657	60
7	0	0	0	0	652	59
8	0	0	0	0	648	60
9	0	0	0	0	652	59
10	0	0	0	0	656	59
11	0	0	0	0	650	59
12	0	0	0	0	647	59
13	0	0	0	0	654	59
14	0	0	0	0	654	59
15	0	0	0	0	650	59
0	0	0	0	0	648	59
1	0	0	0	0	652	59
2	0	0	0	0	655	59
3	0	0	0	0	652	59
4	0	0	0	0	647	59
5	0	0	0	0	651	59
6	0	0	0	0	657	59
7	0	0	0	0	654	59
8	0	0	0	0	647	59
9	0	0	0	0	652	59
10	0	0	0	0	653	59
11	0	0	0	0	655	59
12	0	0	0	0	648	59
13	0	0	0	0	652	59
14	0	0	0	0	651	59
15	0	0	0	0	650	59
0	0	0	0	0	649	59
1	0	0	0	0	648	59
2	0	0	0	0	654	59
3	0	0	0	0	652	59
4	0	0	0	0	647	59
5	0	0	0	0	649	59
6	0	0	0	0	654	59
7	0	0	0	0	652	59
8	0	0	0	0	646	58
9	0	0	0	0	650	59
10	0	0	0	0	653	59
11	0	0	0	0	649	59
12	0	0	0	0	644	59
13	0	0	0	0	649	59
14	0	0	0	0	652	59
15	0	0	0	0	648	59
0	0	0	0	0	644	59
1	0	0	0	0	648	59
2	0	0	0	0	654	59
3	0	0	0	0	648	59
4	0	0	0	0	644	59
5	0	0	0	0	649	59
6	0	0	0	0	652	59
7	0	0	0	0	649	59
8	0	0	0	0	643	59
9	0	0	0	0	648	59
10	0	0	0	0	651	59
11	0	0	0	0	651	59
12	0	0	0	0	646	59
13	0	0	0	0	648	59
14	0	0	0	0	654	59
15	0	0	0	0	647	59
0	0	0	0	0	645	59
1	0	0	0	0	648	60
2	0	0	0	0	654	60
3	0	0	0	0	648	60
4	0	0	0	0	645	62
5	0	0	0	0	649	63
6	0	0	0	0	653	61
7	0	0	0	0	648	60
8	0	0	0	0	644	60
9	0	0	0	0	650	60
10	0	0	0	0	654	60
11	0	0	0	0	650	60
12	0	0	0	0	644	59
13	0	0	0	0	649	60
14	0	0	0	0	651	59
15	0	0	0	0	647	59
0	0	0	0	0	647	59
1	0	0	0	0	648	59
2	0	0	0	0	654	59
3	0	0	0	0	650	59
4	0	0	0	0	645	59
5	0	0	0	0	649	59
6	0	0	0	0	653	59
7	0	0	0	0	650	59
8	0	0	0	0	645	59
9	0	0	0	0	648	60
10	0	0	0	0	651	59
11	0	0	0	0	652	59
12	0	0	0	0	638	59
13	0	0	0	0	651	59
14	0	0	0	0	651	59
15	0	0	0	0	654	59
0	0	0	0	0	641	59
1	0	0	0	0	648	59
2	0	0	0	0	654	58
3	0	0	0	0	652	59
4	0	0	0	0	643	59
5	0	0	0	0	648	59
6	0	0	0	0	654	59
7	0	0	0	0	649	59
8	0	0	0	0	645	59
9	0	0	0	0	650	59
10	0	0	0	0	655	59
11	0	0	0	0	649	59
12	0	0	0	0	646	58
13	0	0	0	0	651	58
14	0	0	0	0	653	58
15	0	0	0	0	650	57
0	0	0	0	0	645	58
1	0	0	0	0	649	58
2	0	0	0	0	654	58
3	0	0	0	0	648	58
4	0	0	0	0	646	57
5	0	0	0	0	650	58
6	0	0	0	0	653	58
7	0	0	0	0	647	58
8	0	0	0	0	645	58
9	0	0	0	0	650	57
10	0	0	0	0	655	57
11	0	0	0	0	650	57
12	0	0	0	0	646	57
13	0	0	0	0	651	57
14	0	0	0	0	655	57
15	0	0	0	0	650	57
0	0	0	0	0	646	57
1	0	0	0	0	649	57
2	0	0	0	0	655	57
3	0	0	0	0	651	57
4	0	0	0	0	645	57
5	0	0	0	0	651	57
6	0	0	0	0	655	57
7	0	0	0	0	649	57
8	0	0	0	0	646	57
9	0	0	0	0	650	57
10	0	0	0	0	655	57
11	0	0	0	0	649	57
12	0	0	0	0	644	56
13	0	0	0	0	649	57
14	0	0	0	0	654	57
15	0	0	0	0	649	57
0	0	0	0	0	644	57
1	0	0	0	0	648	57
2	0	0	0	0	654	57
3	0	0	0	0	649	57
4	0	0	0	0	644	57
5	0	0	0	0	649	57
6	0	0	0	0	654	56
7	0	0	0	0	649	57
8	0	0	0	0	645	57
9	0	0	0	0	649	57
10	0	0	0	0	653	57
11	0	0	0	0	648	57
12	0	0	0	0	644	57
13	0	0	0	0	648	57
14	0	0	0	0	652	57
15	0	0	0	0	649	57
0	0	0	0	0	643	57
1	0	0	0	0	648	56
2	0	0	0	0	652	57
3	0	0	0	0	648	57
4	0	0	0	0	644	56
5	0	0	0	0	648	56
6	0	0	0	0	652	56
7	0	0	0	0	647	56
8	0	0	0	0	643	56
9	0	0	0	0	647	56
10	0	0	0	0	652	56
11	0	0	0	0	647	55
12	0	0	0	0	642	56
13	0	0	0	0	649	56
14	0	0	0	0	651	56
15	0	0	0	0	647	56
0	0	0	0	0	643	56
1	0	0	0	0	648	56
2	0	0	0	0	652	56
3	0	0	0	0	648	56
4	0	0	0	0	643	56
5	0	0	0	0	647	56
6	0	0	0	0	652	56
7	0	0	0	0	648	56
8	0	0	0	0	643	56
9	0	0	0	0	647	56
10	0	0	0	0	652	56
11	0	0	0	0	647	56
12	0	0	0	0	643	55
13	0	0	0	0	648	55
14	0	0	0	0	652	55
15	0	0	0	0	647	55
0	0	0	0	0	643	55
1	0	0	0	0	647	55
2	0	0	0	0	652	55
3	0	0	0	0	647	55
4	0	0	0	0	643	55
5	0	0	0	0	647	55
6	0	0	0	0	651	55
7	0	0	0	0	647	55
8	0	0	0	0	643	55
9	0	0	0	0	647	55
10	0	0	0	0	651	55
11	0	0	0	0	647	55
12	0	0	0	0	643	55
13	0	0	0	0	647	55
14	0	0	0	0	652	55
15	0	0	0	0	647	55
0	0	0	0	0	643	55
1	0	0	0	0	647	55
2	0	0	0	0	652	55
3	0	0	0	0	647	55
4	0	0	0	0	643	54
5	0	0	0	0	647	54
6	0	0	0	0	651	54
7	0	0	0	0	647	54
8	0	0	0	0	643	54
9	0	0	0	0	647	54
10	0	0	0	0	652	54
11	0	0	0	0	647	54
12	0	0	0	0	642	54
13	0	0	0	0	647	54
14	0	0	0	0	652	54
15	0	0	0	0	646	54
0	0	0	0	0	643	54
1	0	0	0	0	647	55
2	0	0	0	0	651	54
3	0	0	0	0	646	54
4	0	0	0	0	641	54
5	0	0	0	0	645	54
6	0	0	0	0	649	54
7	0	0	0	0	646	54
8	0	0	0	0	641	54
9	0	0	0	0	645	54
10	0	0	0	0	650	54
11	0	0	0	0	645	53
12	0	0	0	0	641	54
13	0	0	0	0	646	54
14	0	0	0	0	649	54
15	0	0	0	0	645	54
0	0	0	0	0	641	54
1	0	0	0	0	644	54
2	0	0	0	0	649	53
3	0	0	0	0	644	54
4	0	0	0	0	639	54
5	0	0	0	0	644	54
6	0	0	0	0	648	54
7	0	0	0	0	644	54
8	0	0	0	0	639	54
9	0	0	0	0	644	54
10	0	0	0	0	647	54
11	0	0	0	0	644	54
12	0	0	0	0	639	54
13	0	0	0	0	643	54
14	0	0	0	0	648	54
15	0	0	0	0	643	54
0	0	0	0	0	639	54
1	0	0	0	0	643	54
2	0	0	0	0	647	53
3	0	0	0	0	643	53
4	0	0	0	0	639	53
5	0	0	0	0	643	53
6	0	0	0	0	647	53
7	0	0	0	0	642	53
8	0	0	0	0	638	53
9	0	0	0	0	643	53
10	0	0	0	0	646	54
11	0	0	0	0	642	54
12	0	0	0	0	639	53
13	0	0	0	0	643	54
14	0	0	0	0	646	54
15	0	0	0	0	642	54
0	0	0	0	0	638	53
1	0	0	0	0	643	53
2	0	0	0	0	646	53
3	0	0	0	0	642	53
4	0	0	0	0	638	53
5	0	0	0	0	642	53
6	0	0	0	0	646	53
7	0	0	0	0	641	53
8	0	0	0	0	638	53
9	0	0	0	0	642	53
10	0	0	0	0	647	53
11	0	0	0	0	641	53
12	0	0	0	0	637	53
13	0	0	0	0	642	53
14	0	0	0	0	646	53
15	0	0	0	0	641	53
0	0	0	0	0	638	53
1	0	0	0	0	642	53
2	0	0	0	0	646	53
3	0	0	0	0	641	53
4	0	0	0	0	638	53
5	0	0	0	0	641	53
6	0	0	0	0	645	53
7	0	0	0	0	641	53
8	0	0	0	0	637	53
9	0	0	0	0	642	53
10	0	0	0	0	645	52
11	0	0	0	0	641	53
12	0	0	0	0	637	53
13	0	0	0	0	641	53
14	0	0	0	0	645	53
15	0	0	0	0	641	53
0	0	0	0	0	636	53
1	0	0	0	0	641	53
2	0	0	0	0	645	53
3	0	0	0	0	639	53
4	0	0	0	0	636	53
5	0	0	0	0	640	53
6	0	0	0	0	644	53
7	0	0	0	0	640	53
8	0	0	0	0	636	53
9	0	0	0	0	640	53
10	0	0	0	0	645	53
11	0	0	0	0	641	53
12	0	0	0	0	638	53
13	0	0	0	0	641	53
14	0	0	0	0	643	53
15	0	0	0	0	639	53
0	0	0	0	0	635	53
1	0	0	0	0	641	52
2	0	0	0	0	645	53
3	0	0	0	0	639	53
4	0	0	0	0	636	53
5	0	0	0	0	640	53
6	0	0	0	0	644	53
7	0	0	0	0	639	53
8	0	0	0	0	636	53
9	0	0	0	0	640	52
10	0	0	0	0	644	53
11	0	0	0	0	639	53
12	0	0	0	0	635	53
13	0	0	0	0	639	53
14	0	0	0	0	643	53
15	0	0	0	0	639	53
0	0	0	0	0	635	53
1	0	0	0	0	639	53
2	0	0	0	0	643	53
3	0	0	0	0	638	53
4	0	0	0	0	634	53
5	0	0	0	0	639	53
6	0	0	0	0	642	53
7	0	0	0	0	638	53
8	0	0	0	0	634	53
9	0	0	0	0	638	53
10	0	0	0	0	642	53
11	0	0	0	0	638	53
12	0	0	0	0	633	53
13	0	0	0	0	638	53
14	0	0	0	0	642	53
15	0	0	0	0	638	53
0	0	0	0	0	633	54
1	0	0	0	0	638	53
2	0	0	0	0	641	54
3	0	0	0	0	637	54
4	0	0	0	0	633	54
5	0	0	0	0	638	54
6	0	0	0	0	641	54
7	0	0	0	0	637	54
8	0	0	0	0	633	54
9	0	0	0	0	637	53
10	0	0	0	0	641	53
11	0	0	0	0	637	53
12	0	0	0	0	633	53
13	0	0	0	0	637	53
14	0	0	0	0	641	53
15	0	0	0	0	637	53
0	0	0	0	0	632	53
1	0	0	0	0	636	53
2	0	0	0	0	641	54
3	0	0	0	0	637	54
4	0	0	0	0	632	53
5	0	0	0	0	637	54
6	0	0	0	0	640	54
7	0	0	0	0	636	54
8	0	0	0	0	632	54
9	0	0	0	0	636	54
10	0	0	0	0	640	54
11	0	0	0	0	636	54
12	0	0	0	0	632	54
13	0	0	0	0	636	54
14	0	0	0	0	640	54
15	0	0	0	0	636	54
0	0	0	0	0	632	53
1	0	0	0	0	635	53
2	0	0	0	0	639	54
3	0	0	0	0	636	53
4	0	0	0	0	632	53
5	0	0	0	0	636	53
6	0	0	0	0	640	53
7	0	0	0	0	636	53
8	0	0	0	0	632	53
9	0	0	0	0	636	53
10	0	0	0	0	639	53
11	0	0	0	0	635	54
12	0	0	0	0	632	53
13	0	0	0	0	636	53
14	0	0	0	0	639	54
15	0	0	0	0	635	54
0	0	0	0	0	632	54
1	0	0	0	0	636	54
2	0	0	0	0	639	53
3	0	0	0	0	635	53
4	0	0	0	0	632	53
5	0	0	0	0	635	54
6	0	0	0	0	639	53
7	0	0	0	0	635	53
8	0	0	0	0	631	53
9	0	0	0	0	635	53
10	0	0	0	0	639	53
11	0	0	0	0	636	52
12	0	0	0	0	631	53
13	0	0	0	0	636	53
14	0	0	0	0	639	53
15	0	0	0	0	635	53
0	0	0	0	0	631	53
1	0	0	0	0	635	53
2	0	0	0	0	639	53
3	0	0	0	0	635	53
4	0	0	0	0	631	53
5	0	0	0	0	635	53
6	0	0	0	0	638	53
7	0	0	0	0	634	53
8	0	0	0	0	631	53
9	0	0	0	0	635	53
10	0	0	0	0	639	53
11	0	0	0	0	635	53
12	0	0	0	0	631	53
13	0	0	0	0	635	53
14	0	0	0	0	639	53
15	0	0	0	0	635	53
0	0	0	0	0	631	53
1	0	0	0	0	635	53
2	0	0	0	0	639	54
3	0	0	0	0	634	54
4	0	0	0	0	630	54
5	0	0	0	0	635	54
6	0	0	0	0	638	54
7	0	0	0	0	634	54
8	0	0	0	0	630	54
9	0	0	0	0	635	54
10	0	0	0	0	638	54
11	0	0	0	0	634	54
12	0	0	0	0	630	54
13	0	0	0	0	633	55
14	0	0	0	0	638	55
15	0	0	0	0	634	55
0	0	0	0	0	630	55
1	0	0	0	0	635	54
2	0	0	0	0	638	55
3	0	0	0	0	634	55
4	0	0	0	0	630	55
5	0	0	0	0	634	55
6	0	0	0	0	638	55
7	0	0	0	0	633	55
8	0	0	0	0	630	56
9	0	0	0	0	634	56
10	0	0	0	0	638	56
11	0	0	0	0	634	56
12	0	0	0	0	630	56
13	0	0	0	0	634	56
14	0	0	0	0	638	56
15	0	0	0	0	634	56
0	0	0	0	0	630	57
1	0	0	0	0	633	56
2	0	0	0	0	638	57
3	0	0	0	0	633	56
4	0	0	0	0	630	56
5	0	0	0	0	633	57
6	0	0	0	0	638	57
7	0	0	0	0	633	56
8	0	0	0	0	629	56
9	0	0	0	0	634	56
10	0	0	0	0	638	56
11	0	0	0	0	633	56
12	0	0	0	0	628	56
13	0	0	0	0	632	56
14	0	0	0	0	637	56
15	0	0	0	0	633	56
0	0	0	0	0	629	56
1	0	0	0	0	633	56
2	0	0	0	0	638	56
3	0	0	0	0	633	56
4	0	0	0	0	629	56
5	0	0	0	0	633	56
6	0	0	0	0	637	57
7	0	0	0	0	633	57
8	0	0	0	0	629	57
9	0	0	0	0	633	57
10	0	0	0	0	638	56
11	0	0	0	0	632	56
12	0	0	0	0	629	56
13	0	0	0	0	632	56
14	0	0	0	0	637	56
15	0	0	0	0	633	56
0	0	0	0	0	629	56
1	0	0	0	0	633	56
2	0	0	0	0	637	56
3	0	0	0	0	633	56
4	0	0	0	0	629	56
5	0	0	0	0	633	56
6	0	0	0	0	637	56
7	0	0	0	0	633	56
8	0	0	0	0	628	56
9	0	0	0	0	632	57
10	0	0	0	0	637	57
11	0	0	0	0	633	56
12	0	0	0	0	629	57
13	0	0	0	0	633	57
14	0	0	0	0	637	57
15	0	0	0	0	633	57
0	0	0	0	0	629	57
1	0	0	0	0	632	57
2	0	0	0	0	636	57
3	0	0	0	0	633	56
4	0	0	0	0	629	57
5	0	0	0	0	633	56
6	0	0	0	0	636	57
7	0	0	0	0	633	57
8	0	0	0	0	629	56
9	0	0	0	0	632	56
10	0	0	0	0	636	57
11	0	0	0	0	632	57
12	0	0	0	0	629	56
13	0	0	0	0	633	57
14	0	0	0	0	636	57
15	0	0	0	0	633	57
0	0	0	0	0	628	57
1	0	0	0	0	633	57
2	0	0	0	0	637	57
3	0	0	0	0	633	56
4	0	0	0	0	628	57
5	0	0	0	0	632	57
6	0	0	0	0	637	57
7	0	0	0	0	632	57
8	0	0	0	0	628	57
9	0	0	0	0	632	57
10	0	0	0	0	636	57
11	0	0	0	0	632	57
12	0	0	0	0	628	57
13	0	0	0	0	632	56
14	0	0	0	0	637	57
15	0	0	0	0	632	57
0	0	0	0	0	627	57
1	0	0	0	0	633	56
2	0	0	0	0	637	57
3	0	0	0	0	632	57
4	0	0	0	0	628	57
5	0	0	0	0	632	56
6	0	0	0	0	636	56
7	0	0	0	0	632	56
8	0	0	0	0	628	56
9	0	0	0	0	632	56
10	0	0	0	0	636	56
11	0	0	0	0	632	56
12	0	0	0	0	628	56
13	0	0	0	0	632	56
14	0	0	0	0	636	55
15	0	0	0	0	632	55
0	0	0	0	0	628	55
1	0	0	0	0	632	55
2	0	0	0	0	636	55
3	0	0	0	0	632	55
4	0	0	0	0	627	55
5	0	0	0	0	632	55
6	0	0	0	0	636	55
7	0	0	0	0	632	55
8	0	0	0	0	628	55
9	0	0	0	0	632	55
10	0	0	0	0	636	55
11	0	0	0	0	632	54
12	0	0	0	0	628	54
13	0	0	0	0	632	55
14	0	0	0	0	636	54
15	0	0	0	0	632	54
0	0	0	0	0	628	54
1	0	0	0	0	632	54
2	0	0	0	0	636	54
3	0	0	0	0	632	53
4	0	0	0	0	628	53
5	0	0	0	0	632	53
6	0	0	0	0	636	53
7	0	0	0	0	632	53
8	0	0	0	0	628	53
9	0	0	0	0	632	53
10	0	0	0	0	636	52
11	0	0	0	0	632	53
12	0	0	0	0	627	53
13	0	0	0	0	632	53
14	0	0	0	0	636	53
15	0	0	0	0	632	53
0	0	0	0	0	628	53
1	0	0	0	0	632	52
2	0	0	0	0	636	52
3	0	0	0	0	632	52
4	0	0	0	0	628	52
5	0	0	0	0	631	52
6	0	0	0	0	636	52
7	0	0	0	0	632	52
8	0	0	0	0	627	51
9	0	0	0	0	632	51
10	0	0	0	0	636	51
11	0	0	0	0	632	51
12	0	0	0	0	627	51
13	0	0	0	0	632	50
14	0	0	0	0	636	50
15	0	0	0	0	632	51
0	0	0	0	0	628	50
1	0	0	0	0	632	50
2	0	0	0	0	635	50
3	0	0	0	0	632	49
4	0	0	0	0	628	49
5	0	0	0	0	632	49
6	0	0	0	0	636	48
7	0	0	0	0	632	48
8	0	0	0	0	627	48
9	0	0	0	0	632	48
10	0	0	0	0	636	47
11	0	0	0	0	631	48
12	0	0	0	0	627	47
13	0	0	0	0	632	47
14	0	0	0	0	636	47
15	0	0	0	0	631	47
0	0	0	0	0	627	47
1	0	0	0	0	632	47
2	0	0	0	0	636	47
3	0	0	0	0	632	46
4	0	0	0	0	627	46
5	0	0	0	0	632	46
6	0	0	0	0	636	46
7	0	0	0	0	631	46
8	0	0	0	0	627	46
9	0	0	0	0	632	46
10	0	0	0	0	636	46
11	0	0	0	0	632	514
12	0	0	0	0	627	508
13	0	0	0	0	632	502
14	0	0	0	0	637	497
15	0	0	0	0	632	492
0	0	0	0	0	627	488
1	0	0	0	0	631	486
2	0	0	0	0	635	483
3	0	0	0	0	632	481
4	0	0	0	0	627	480
5	0	0	0	0	632	479
6	0	0	0	0	636	477
7	0	0	0	0	631	475
8	0	0	0	0	627	473
9	0	0	0	0	632	472
10	0	0	0	0	636	470
11	0	0	0	0	631	469
12	0	0	0	0	627	468
13	0	0	0	0	631	468
14	0	0	0	0	635	469
15	0	0	0	0	631	470
0	0	0	0	0	627	470
1	0	0	0	0	632	472
2	0	0	0	0	635	473
3	0	0	0	0	631	475
4	0	0	0	0	627	478
5	0	0	0	0	632	481
6	0	0	0	0	636	486
7	0	0	0	0	632	490
8	0	0	0	0	627	495
9	0	0	0	0	632	499
10	0	0	0	0	636	504
11	0	0	0	0	631	508
12	0	0	0	0	627	512
13	0	0	0	0	631	515
14	0	0	0	0	635	518
15	0	0	0	0	632	521
0	0	0	0	0	627	523
1	0	0	0	0	631	524
2	0	0	0	0	635	526
3	0	0	0	0	632	527
4	0	0	0	0	627	527
5	0	0	0	0	632	528
6	0	0	0	0	635	528
7	0	0	0	0	632	527
8	0	0	0	0	627	527
9	0	0	0	0	631	526
10	0	0	0	0	635	525
11	0	0	0	0	631	524
12	0	0	0	0	627	524
13	0	0	0	0	631	524
14	0	0	0	0	636	524
15	0	0	0	0	631	523
0	0	0	0	0	627	523
1	0	0	0	0	631	523
2	0	0	0	0	635	523
3	0	0	0	0	632	522
4	0	0	0	0	627	522
5	0	0	0	0	632	522
6	0	0	0	0	636	522
7	0	0	0	0	631	521
8	0	0	0	0	627	522
9	0	0	0	0	631	522
10	0	0	0	0	636	522
11	0	0	0	0	631	522
12	0	0	0	0	627	523
13	0	0	0	0	631	523
14	0	0	0	0	635	524
15	0	0	0	0	631	524
0	0	0	0	0	627	524
1	0	0	0	0	632	525
2	0	0	0	0	635	526
3	0	0	0	0	631	527
4	0	0	0	0	627	527
5	0	0	0	0	632	529
6	0	0	0	0	635	530
7	0	0	0	0	630	531
8	0	0	0	0	627	531
9	0	0	0	0	632	532
10	0	0	0	0	636	532
11	0	0	0	0	631	533
12	0	0	0	0	627	533
13	0	0	0	0	631	534
14	0	0	0	0	635	534
15	0	0	0	0	632	534
0	0	0	0	0	627	533
1	0	0	0	0	631	532
2	0	0	0	0	635	531
3	0	0	0	0	631	529
4	0	0	0	0	627	527
5	0	0	0	0	631	525
6	0	0	0	0	635	523
7	0	0	0	0	631	520
8	0	0	0	0	627	517
9	0	0	0	0	631	515
10	0	0	0	0	636	512
11	0	0	0	0	632	509
12	0	0	0	0	628	507
13	0	0	0	0	631	504
14	0	0	0	0	635	502
15	0	0	0	0	631	500
0	0	0	0	0	627	498
1	0	0	0	0	631	496
2	0	0	0	0	636	495
3	0	0	0	0	631	494
4	0	0	0	0	627	493
5	0	0	0	0	631	492
6	0	0	0	0	635	492
7	0	0	0	0	631	491
8	0	0	0	0	627	491
9	0	0	0	0	631	491
10	0	0	0	0	635	491
11	0	0	0	0	631	491
12	0	0	0	0	627	492
13	0	0	0	0	631	492
14	0	0	0	0	636	492
15	0	0	0	0	631	492
0	0	0	0	0	627	492
1	0	0	0	0	631	492
2	0	0	0	0	635	492
3	0	0	0	0	631	492
4	0	0	0	0	626	492
5	0	0	0	0	631	492
6	0	0	0	0	635	491
7	0	0	0	0	631	490
8	0	0	0	0	627	487
9	0	0	0	0	630	484
10	0	0	0	0	635	481
11	0	0	0	0	631	476
12	0	0	0	0	627	471
13	0	0	0	0	631	465
14	0	0	0	0	636	461
15	0	0	0	0	631	456
0	0	0	0	0	627	453
1	0	0	0	0	631	450
2	0	0	0	0	636	447
3	0	0	0	0	631	445
4	0	0	0	0	627	442
5	0	0	0	0	631	439
6	0	0	0	0	635	436
7	0	0	0	0	631	433
8	0	0	0	0	627	431
9	0	0	0	0	631	430
10	0	0	0	0	635	428
11	0	0	0	0	631	427
12	0	0	0	0	627	426
13	0	0	0	0	631	425
14	0	0	0	0	635	424
15	0	0	0	0	631	423
0	0	0	0	0	627	422
1	0	0	0	0	631	420
2	0	0	0	0	635	419
3	0	0	0	0	631	418
4	0	0	0	0	626	417
5	0	0	0	0	631	417
6	0	0	0	0	635	417
7	0	0	0	0	631	418
8	0	0	0	0	626	418
9	0	0	0	0	631	418
10	0	0	0	0	635	418
11	0	0	0	0	630	419
12	0	0	0	0	627	419
13	0	0	0	0	631	420
14	0	0	0	0	635	421
15	0	0	0	0	630	422
0	0	0	0	0	627	424
1	0	0	0	0	630	425
2	0	0	0	0	635	427
3	0	0	0	0	631	429
4	0	0	0	0	627	431
5	0	0	0	0	631	433
6	0	0	0	0	635	435
7	0	0	0	0	631	437
8	0	0	0	0	627	439
9	0	0	0	0	631	442
10	0	0	0	0	635	445
11	0	0	0	0	631	447
12	0	0	0	0	626	449
13	0	0	0	0	630	451
14	0	0	0	0	635	453
15	0	0	0	0	631	455
0	0	0	0	0	626	456
1	0	0	0	0	631	457
2	0	0	0	0	635	458
3	0	0	0	0	631	459
4	0	0	0	0	627	459
5	0	0	0	0	630	460
6	0	0	0	0	635	459
7	0	0	0	0	631	459
8	0	0	0	0	626	459
9	0	0	0	0	631	459
10	0	0	0	0	635	47
11	0	0	0	0	631	47
12	0	0	0	0	626	46
13	0	0	0	0	632	47
14	0	0	0	0	635	47
15	0	0	0	0	630	47
0	0	0	0	0	626	47
1	0	0	0	0	631	47
2	0	0	0	0	635	47
3	0	0	0	0	630	47
4	0	0	0	0	626	47
5	0	0	0	0	631	47
6	0	0	0	0	634	47
7	0	0	0	0	631	47
8	0	0	0	0	627	47
9	0	0	0	0	631	47
10	0	0	0	0	635	47
11	0	0	0	0	631	47
12	0	0	0	0	626	47
13	0	0	0	0	631	47
14	0	0	0	0	635	47
15	0	0	0	0	630	47
0	0	0	0	0	627	47
1	0	0	0	0	631	48
2	0	0	0	0	635	47
3	0	0	0	0	630	48
4	0	0	0	0	627	48
5	0	0	0	0	631	48
6	0	0	0	0	635	48
7	0	0	0	0	631	48
8	0	0	0	0	626	48
9	0	0	0	0	631	48
10	0	0	0	0	635	48
11	0	0	0	0	631	48
12	0	0	0	0	626	48
13	0	0	0	0	630	48
14	0	0	0	0	635	48
15	0	0	0	0	630	48
0	0	0	0	0	626	48
1	0	0	0	0	631	48
2	0	0	0	0	635	48
3	0	0	0	0	630	48
4	0	0	0	0	626	48
5	0	0	0	0	631	48
6	0	0	0	0	634	48
7	0	0	0	0	631	48
8	0	0	0	0	626	48
9	0	0	0	0	631	48
10	0	0	0	0	635	48
11	0	0	0	0	630	48
12	0	0	0	0	626	48
13	0	0	0	0	630	48
14	0	0	0	0	635	48
15	0	0	0	0	631	48
0	0	0	0	0	626	48
1	0	0	0	0	631	48
2	0	0	0	0	634	48
3	0	0	0	0	631	47
4	0	0	0	0	626	48
5	0	0	0	0	630	48
6	0	0	0	0	635	48
7	0	0	0	0	630	48
8	0	0	0	0	627	48
9	0	0	0	0	631	48
10	0	0	0	0	635	48
11	0	0	0	0	631	48
12	0	0	0	0	626	48
13	0	0	0	0	631	48
14	0	0	0	0	635	48
15	0	0	0	0	631	48
0	0	0	0	0	626	48
1	0	0	0	0	630	48
2	0	0	0	0	635	48
3	0	0	0	0	631	48
4	0	0	0	0	626	48
5	0	0	0	0	631	48
6	0	0	0	0	634	48
7	0	0	0	0	630	48
8	0	0	0	0	626	48
9	0	0	0	0	631	47
10	0	0	0	0	634	48
11	0	0	0	0	630	48
12	0	0	0	0	627	48
13	0	0	0	0	631	48
14	0	0	0	0	635	48
15	0	0	0	0	630	48
0	0	0	0	0	627	48
1	0	0	0	0	630	48
2	0	0	0	0	634	48
3	0	0	0	0	631	48
4	0	0	0	0	626	48
5	0	0	0	0	631	48
6	0	0	0	0	635	48
7	0	0	0	0	630	48
8	0	0	0	0	626	48
9	0	0	0	0	630	48
10	0	0	0	0	635	48
11	0	0	0	0	631	48
12	0	0	0	0	626	48
13	0	0	0	0	630	48
14	0	0	0	0	634	48
15	0	0	0	0	630	49
0	0	0	0	0	626	48
1	0	0	0	0	631	48
2	0	0	0	0	635	49
3	0	0	0	0	631	49
4	0	0	0	0	626	49
5	0	0	0	0	631	49
6	0	0	0	0	634	49
7	0	0	0	0	630	49
8	0	0	0	0	626	49
9	0	0	0	0	630	49
10	0	0	0	0	635	49
11	0	0	0	0	630	50
12	0	0	0	0	626	49
13	0	0	0	0	630	50
14	0	0	0	0	634	50
15	0	0	0	0	630	51
0	0	0	0	0	626	51
1	0	0	0	0	631	51
2	0	0	0	0	634	52
3	0	0	0	0	630	51
4	0	0	0	0	627	51
5	0	0	0	0	631	52
6	0	0	0	0	635	51
7	0	0	0	0	630	52
8	0	0	0	0	626	53
9	0	0	0	0	630	53
10	0	0	0	0	635	53
11	0	0	0	0	631	52
12	0	0	0	0	627	54
13	0	0	0	0	631	54
14	0	0	0	0	635	54
15	0	0	0	0	631	54
0	0	0	0	0	626	54
1	0	0	0	0	630	55
2	0	0	0	0	635	54
3	0	0	0	0	631	55
4	0	0	0	0	626	55
5	0	0	0	0	630	55
6	0	0	0	0	635	55
7	0	0	0	0	630	56
8	0	0	0	0	626	56
9	0	0	0	0	630	56
10	0	0	0	0	635	56
11	0	0	0	0	630	56
12	0	0	0	0	626	56
13	0	0	0	0	630	56
14	0	0	0	0	634	56
15	0	0	0	0	630	56
0	0	0	0	0	626	56
1	0	0	0	0	630	56
2	0	0	0	0	635	56
3	0	0	0	0	630	56
4	0	0	0	0	626	56
5	0	0	0	0	630	56
6	0	0	0	0	635	56
7	0	0	0	0	630	56
8	0	0	0	0	626	56
9	0	0	0	0	631	56
10	0	0	0	0	635	56
11	0	0	0	0	630	56
12	0	0	0	0	626	56
13	0	0	0	0	630	56
14	0	0	0	0	634	57
15	0	0	0	0	630	56
0	0	0	0	0	626	56
1	0	0	0	0	630	57
2	0	0	0	0	635	56
3	0	0	0	0	630	56
4	0	0	0	0	627	56
5	0	0	0	0	631	56
6	0	0	0	0	635	56
7	0	0	0	0	630	56
8	0	0	0	0	626	57
9	0	0	0	0	630	56
10	0	0	0	0	635	57
11	0	0	0	0	630	56
12	0	0	0	0	625	56
13	0	0	0	0	631	56
14	0	0	0	0	634	56
15	0	0	0	0	630	56
0	0	0	0	0	626	56
1	0	0	0	0	630	56
2	0	0	0	0	634	56
3	0	0	0	0	630	56
4	0	0	0	0	626	57
5	0	0	0	0	631	57
6	0	0	0	0	633	57
7	0	0	0	0	631	56
8	0	0	0	0	627	56
9	0	0	0	0	630	56
10	0	0	0	0	634	56
11	0	0	0	0	630	56
12	0	0	0	0	626	56
13	0	0	0	0	629	56
14	0	0	0	0	634	56
15	0	0	0	0	630	56
0	0	0	0	0	626	56
1	0	0	0	0	630	56
2	0	0	0	0	634	56
3	0	0	0	0	630	56
4	0	0	0	0	626	56
5	0	0	0	0	630	56
6	0	0	0	0	634	56
7	0	0	0	0	630	56
8	0	0	0	0	626	57
9	0	0	0	0	630	56
10	0	0	0	0	634	57
11	0	0	0	0	630	56
12	0	0	0	0	627	56
13	0	0	0	0	630	56
14	0	0	0	0	634	56
15	0	0	0	0	630	56
0	0	0	0	0	626	56
1	0	0	0	0	630	56
2	0	0	0	0	635	56
3	0	0	0	0	630	56
4	0	0	0	0	627	56
5	0	0	0	0	630	56
6	0	0	0	0	634	56
7	0	0	0	0	631	56
8	0	0	0	0	626	56
9	0	0	0	0	630	56
10	0	0	0	0	634	56
11	0	0	0	0	630	56
12	0	0	0	0	626	56
13	0	0	0	0	630	56
14	0	0	0	0	634	56
15	0	0	0	0	630	56
0	0	0	0	0	625	56
1	0	0	0	0	630	56
2	0	0	0	0	634	56
3	0	0	0	0	630	56
4	0	0	0	0	626	57
5	0	0	0	0	630	56
6	0	0	0	0	634	57
7	0	0	0	0	630	56
8	0	0	0	0	626	56
9	0	0	0	0	630	56
10	0	0	0	0	634	56
11	0	0	0	0	630	56
12	0	0	0	0	626	56
13	0	0	0	0	630	56
14	0	0	0	0	634	56
15	0	0	0	0	631	56
0	0	0	0	0	626	56
1	0	0	0	0	631	56
2	0	0	0	0	635	57
3	0	0	0	0	631	56
4	0	0	0	0	626	56
5	0	0	0	0	631	57
6	0	0	0	0	634	57
7	0	0	0	0	630	56
8	0	0	0	0	626	57
9	0	0	0	0	630	57
10	0	0	0	0	635	57
11	0	0	0	0	630	56
12	0	0	0	0	625	56
13	0	0	0	0	630	57
14	0	0	0	0	634	56
15	0	0	0	0	630	56
0	0	0	0	0	626	56
1	0	0	0	0	630	56
2	0	0	0	0	635	56
3	0	0	0	0	630	56
4	0	0	0	0	626	56
5	0	0	0	0	630	56
6	0	0	0	0	635	56
7	0	0	0	0	629	56
8	0	0	0	0	626	56
9	0	0	0	0	630	56
10	0	0	0	0	633	56
11	0	0	0	0	630	56
12	0	0	0	0	626	56
13	0	0	0	0	630	56
14	0	0	0	0	634	56
15	0	0	0	0	630	56
0	0	0	0	0	626	56
1	0	0	0	0	630	56
2	0	0	0	0	634	56
3	0	0	0	0	630	56
4	0	0	0	0	626	56
5	0	0	0	0	630	56
6	0	0	0	0	634	56
7	0	0	0	0	630	57
8	0	0	0	0	626	56
9	0	0	0	0	630	56
10	0	0	0	0	635	56
11	0	0	0	0	630	56
12	0	0	0	0	626	57
13	0	0	0	0	630	56
14	0	0	0	0	633	56
15	0	0	0	0	630	56
0	0	0	0	0	626	56
1	0	0	0	0	630	56
2	0	0	0	0	634	56
3	0	0	0	0	630	56
4	0	0	0	0	626	56
5	0	0	0	0	630	56
6	0	0	0	0	634	56
7	0	0	0	0	630	56
8	0	0	0	0	626	56
9	0	0	0	0	630	56
10	0	0	0	0	634	55
11	0	0	0	0	630	55
12	0	0	0	0	626	55
13	0	0	0	0	630	55
14	0	0	0	0	635	55
15	0	0	0	0	630	55
0	0	0	0	0	626	55
1	0	0	0	0	630	55
2	0	0	0	0	635	55
3	0	0	0	0	630	55
4	0	0	0	0	621	55
5	0	0	0	0	624	55
6	0	0	0	0	640	55
7	0	0	0	0	619	54
8	0	0	0	0	620	55
9	0	0	0	0	629	55
10	0	0	0	0	635	55
11	0	0	0	0	624	55
12	0	0	0	0	625	55
13	0	0	0	0	632	54
14	0	0	0	0	632	54
15	0	0	0	0	628	54
0	0	0	0	0	627	54
1	0	0	0	0	632	54
2	0	0	0	0	632	54
3	0	0	0	0	627	53
4	0	0	0	0	628	53
5	0	0	0	0	631	53
6	0	0	0	0	632	53
7	0	0	0	0	629	53
8	0	0	0	0	627	53
9	0	0	0	0	630	53
10	0	0	0	0	633	53
11	0	0	0	0	630	52
12	0	0	0	0	625	52
13	0	0	0	0	628	52
14	0	0	0	0	634	52
15	0	0	0	0	631	51
0	0	0	0	0	626	52
1	0	0	0	0	630	51
2	0	0	0	0	634	51
3	0	0	0	0	630	51
4	0	0	0	0	626	51
5	0	0	0	0	630	51
6	0	0	0	0	634	51
7	0	0	0	0	631	50
8	0	0	0	0	626	51
9	0	0	0	0	630	51
10	0	0	0	0	635	51
11	0	0	0	0	630	51
12	0	0	0	0	625	51
13	0	0	0	0	630	51
14	0	0	0	0	634	50
15	0	0	0	0	630	50
0	0	0	0	0	626	50
1	0	0	0	0	630	50
2	0	0	0	0	635	50
3	0	0	0	0	631	50
4	0	0	0	0	626	50
5	0	0	0	0	630	50
6	0	0	0	0	634	50
7	0	0	0	0	630	50
8	0	0	0	0	626	50
9	0	0	0	0	630	50
10	0	0	0	0	634	49
11	0	0	0	0	630	49
12	0	0	0	0	626	49
13	0	0	0	0	630	49
14	0	0	0	0	634	49
15	0	0	0	0	630	49
0	0	0	0	0	626	49
1	0	0	0	0	630	49
2	0	0	0	0	635	49
3	0	0	0	0	630	49
4	0	0	0	0	626	49
5	0	0	0	0	630	49
6	0	0	0	0	635	49
7	0	0	0	0	630	48
8	0	0	0	0	626	48
9	0	0	0	0	630	49
10	0	0	0	0	633	49
11	0	0	0	0	630	48
12	0	0	0	0	626	48
13	0	0	0	0	630	48
14	0	0	0	0	635	48
15	0	0	0	0	630	48
0	0	0	0	0	626	48
1	0	0	0	0	630	48
2	0	0	0	0	634	48
3	0	0	0	0	630	47
4	0	0	0	0	626	47
5	0	0	0	0	630	47
6	0	0	0	0	634	47
7	0	0	0	0	630	47
8	0	0	0	0	626	47
9	0	0	0	0	630	47
10	0	0	0	0	634	48
11	0	0	0	0	630	48
12	0	0	0	0	626	48
13	0	0	0	0	630	48
14	0	0	0	0	634	48
15	0	0	0	0	631	48
0	0	0	0	0	626	48
1	0	0	0	0	631	47
2	0	0	0	0	634	48
3	0	0	0	0	629	48
4	0	0	0	0	626	48
5	0	0	0	0	630	48
6	0	0	0	0	635	48
7	0	0	0	0	630	48
8	0	0	0	0	626	49
9	0	0	0	0	630	49
10	0	0	0	0	634	49
11	0	0	0	0	630	49
12	0	0	0	0	626	49
13	0	0	0	0	630	49
14	0	0	0	0	633	49
15	0	0	0	0	630	49
0	0	0	0	0	626	49
1	0	0	0	0	629	49
2	0	0	0	0	634	49
3	0	0	0	0	630	49
4	0	0	0	0	626	49
5	0	0	0	0	630	49
6	0	0	0	0	633	48
7	0	0	0	0	630	47
8	0	0	0	0	626	48
9	0	0	0	0	630	47
10	0	0	0	0	634	48
11	0	0	0	0	630	47
12	0	0	0	0	625	47
13	0	0	0	0	630	47
14	0	0	0	0	634	47
15	0	0	0	0	627	47
0	0	0	0	0	624	48
1	0	0	0	0	631	48
2	0	0	0	0	634	48
3	0	0	0	0	630	48
4	0	0	0	0	625	48
5	0	0	0	0	630	48
6	0	0	0	0	634	48
7	0	0	0	0	630	48
8	0	0	0	0	625	48
9	0	0	0	0	631	48
10	0	0	0	0	633	49
11	0	0	0	0	630	49
12	0	0	0	0	626	48
13	0	0	0	0	630	48
14	0	0	0	0	634	48
15	0	0	0	0	630	48
0	0	0	0	0	626	48
1	0	0	0	0	630	48
2	0	0	0	0	633	48
3	0	0	0	0	630	48
4	0	0	0	0	625	48
5	0	0	0	0	630	48
6	0	0	0	0	634	47
7	0	0	0	0	630	48
8	0	0	0	0	626	48
9	0	0	0	0	630	48
10	0	0	0	0	634	48
11	0	0	0	0	629	48
12	0	0	0	0	626	47
13	0	0	0	0	630	48
14	0	0	0	0	634	48
15	0	0	0	0	630	48
0	0	0	0	0	626	48
1	0	0	0	0	630	48
2	0	0	0	0	634	47
3	0	0	0	0	630	48
4	0	0	0	0	625	47
5	0	0	0	0	630	47
6	0	0	0	0	634	47
7	0	0	0	0	630	47
8	0	0	0	0	625	47
9	0	0	0	0	629	47
10	0	0	0	0	635	47
11	0	0	0	0	630	47
12	0	0	0	0	626	47
13	0	0	0	0	630	47
14	0	0	0	0	634	47
15	0	0	0	0	630	47
0	0	0	0	0	626	47
1	0	0	0	0	630	47
2	0	0	0	0	634	47
3	0	0	0	0	630	46
4	0	0	0	0	625	47
5	0	0	0	0	630	46
6	0	0	0	0	633	46
7	0	0	0	0	630	46
8	0	0	0	0	625	46
9	0	0	0	0	629	46
10	0	0	0	0	634	46
11	0	0	0	0	630	46
12	0	0	0	0	625	47
13	0	0	0	0	630	47
14	0	0	0	0	633	47
15	0	0	0	0	630	47
0	0	0	0	0	626	47
1	0	0	0	0	631	47
2	0	0	0	0	635	47
3	0	0	0	0	630	47
4	0	0	0	0	625	47
5	0	0	0	0	630	47
6	0	0	0	0	633	47
7	0	0	0	0	629	47
8	0	0	0	0	626	47
9	0	0	0	0	630	47
10	0	0	0	0	634	47
11	0	0	0	0	629	47
12	0	0	0	0	625	47
13	0	0	0	0	630	47
14	0	0	0	0	633	47
15	0	0	0	0	630	47
0	0	0	0	0	625	47
1	0	0	0	0	630	46
2	0	0	0	0	634	47
3	0	0	0	0	630	47
4	0	0	0	0	625	47
5	0	0	0	0	629	46
6	0	0	0	0	633	47
7	0	0	0	0	631	47
8	0	0	0	0	626	47
9	0	0	0	0	630	47
10	0	0	0	0	634	47
11	0	0	0	0	630	47
12	0	0	0	0	625	46
13	0	0	0	0	630	47
14	0	0	0	0	634	47
15	0	0	0	0	629	47
0	0	0	0	0	625	47
1	0	0	0	0	630	47
2	0	0	0	0	634	47
3	0	0	0	0	630	47
4	0	0	0	0	625	47
5	0	0	0	0	630	47
6	0	0	0	0	634	47
7	0	0	0	0	630	47
8	0	0	0	0	626	47
9	0	0	0	0	630	47
10	0	0	0	0	634	46
11	0	0	0	0	631	46
12	0	0	0	0	625	47
13	0	0	0	0	630	47
14	0	0	0	0	634	47
15	0	0	0	0	630	46
0	0	0	0	0	625	47
1	0	0	0	0	629	47
2	0	0	0	0	635	47
3	0	0	0	0	630	47
4	0	0	0	0	625	47
5	0	0	0	0	629	47
6	0	0	0	0	634	47
7	0	0	0	0	630	47
8	0	0	0	0	625	47
9	0	0	0	0	630	47
10	0	0	0	0	634	47
11	0	0	0	0	630	47
12	0	0	0	0	626	47
13	0	0	0	0	630	46
14	0	0	0	0	633	47
15	0	0	0	0	629	47
0	0	0	0	0	625	47
1	0	0	0	0	629	47
2	0	0	0	0	633	47
3	0	0	0	0	630	46
4	0	0	0	0	626	47
5	0	0	0	0	629	47
6	0	0	0	0	634	47
7	0	0	0	0	628	47
8	0	0	0	0	625	46
9	0	0	0	0	630	47
10	0	0	0	0	634	47
11	0	0	0	0	630	47
12	0	0	0	0	626	47
13	0	0	0	0	630	46
14	0	0	0	0	634	47
15	0	0	0	0	630	47
0	0	0	0	0	625	47
1	0	0	0	0	630	47
2	0	0	0	0	634	47
3	0	0	0	0	630	47
4	0	0	0	0	625	46
5	0	0	0	0	630	47
6	0	0	0	0	634	47
7	0	0	0	0	630	47
8	0	0	0	0	628	46
9	0	0	0	0	631	46
10	0	0	0	0	634	47
11	0	0	0	0	630	47
12	0	0	0	0	626	47
13	0	0	0	0	630	46
14	0	0	0	0	639	47
15	0	0	0	0	629	47
0	0	0	0	0	626	47
1	0	0	0	0	630	47
2	0	0	0	0	635	47
3	0	0	0	0	629	47
4	0	0	0	0	626	47
5	0	0	0	0	630	47
6	0	0	0	0	633	47
7	0	0	0	0	630	47
8	0	0	0	0	625	47
9	0	0	0	0	630	47
10	0	0	0	0	635	47
11	0	0	0	0	630	47
12	0	0	0	0	626	47
13	0	0	0	0	630	47
14	0	0	0	0	634	47
15	0	0	0	0	630	46
0	0	0	0	0	625	47
1	0	0	0	0	630	47
2	0	0	0	0	633	47
3	0	0	0	0	630	47
4	0	0	0	0	626	47
5	0	0	0	0	629	47
6	0	0	0	0	634	47
7	0	0	0	0	630	47
8	0	0	0	0	625	47
9	0	0	0	0	630	47
10	0	0	0	0	634	46
11	0	0	0	0	630	47
12	0	0	0	0	626	47
13	0	0	0	0	630	47
14	0	0	0	0	633	47
15	0	0	0	0	628	47
0	0	0	0	0	626	47
1	0	0	0	0	630	47
2	0	0	0	0	629	47
3	0	0	0	0	631	47
4	0	0	0	0	624	46
5	0	0	0	0	630	46
6	0	0	0	0	632	47
7	0	0	0	0	628	47
8	0	0	0	0	625	47
9	0	0	0	0	629	46
10	0	0	0	0	633	47
11	0	0	0	0	630	47
12	0	0	0	0	626	47
13	0	0	0	0	632	47
14	0	0	0	0	632	47
15	0	0	0	0	631	47
0	0	0	0	0	625	47
1	0	0	0	0	629	47
2	0	0	0	0	634	47
3	0	0	0	0	630	47
4	0	0	0	0	627	47
5	0	0	0	0	629	47
6	0	0	0	0	634	47
7	0	0	0	0	630	47
8	0	0	0	0	629	47
9	0	0	0	0	627	46
10	0	0	0	0	633	47
11	0	0	0	0	630	47
12	0	0	0	0	625	47
13	0	0	0	0	631	47
14	0	0	0	0	633	47
15	0	0	0	0	630	46
0	0	0	0	0	625	47
1	0	0	0	0	630	47
2	0	0	0	0	634	47
3	0	0	0	0	630	47
4	0	0	0	0	625	47
5	0	0	0	0	628	47
6	0	0	0	0	636	47
7	0	0	0	0	630	46
8	0	0	0	0	627	47
9	0	0	0	0	630	47
10	0	0	0	0	636	47
11	0	0	0	0	630	46
12	0	0	0	0	625	47
13	0	0	0	0	629	47
14	0	0	0	0	634	47
15	0	0	0	0	629	46
0	0	0	0	0	625	47
1	0	0	0	0	630	47
2	0	0	0	0	633	46
3	0	0	0	0	630	47
4	0	0	0	0	625	47
5	0	0	0	0	629	47
6	0	0	0	0	634	47
7	0	0	0	0	630	47
8	0	0	0	0	625	47
9	0	0	0	0	631	47
10	0	0	0	0	637	47
11	0	0	0	0	635	47
12	0	0	0	0	635	47
13	0	0	0	0	644	47
14	0	0	0	0	644	47
15	0	0	0	0	605	47
0	0	0	0	0	605	47
1	0	0	0	0	624	47
2	0	0	0	0	652	47
3	0	0	0	0	627	47
4	0	0	0	0	618	47
5	0	0	0	0	636	46
6	0	0	0	0	652	47
7	0	0	0	0	640	47
8	0	0	0	0	621	47
9	0	0	0	0	639	47
10	0	0	0	0	643	47
11	0	0	0	0	627	47
12	0	0	0	0	630	48
13	0	0	0	0	637	48
14	0	0	0	0	636	48
15	0	0	0	0	627	48
0	0	0	0	0	630	48
1	0	0	0	0	612	48
2	0	0	0	0	619	48
3	0	0	0	0	595	48
4	0	0	0	0	639	48
5	0	0	0	0	638	48
6	0	0	0	0	616	48
7	0	0	0	0	625	48
8	0	0	0	0	618	48
9	0	0	0	0	636	48
10	0	0	0	0	647	48
11	0	0	0	0	632	48
12	0	0	0	0	655	47
13	0	0	0	0	617	48
14	0	0	0	0	579	48
15	0	0	0	0	654	48
0	0	0	0	0	634	48
1	0	0	0	0	607	48
2	0	0	0	0	632	48
3	0	0	0	0	679	48
4	0	0	0	0	685	48
5	0	0	0	0	666	48
6	0	0	0	0	647	49
7	0	0	0	0	614	48
8	0	0	0	0	615	49
9	0	0	0	0	622	49
10	0	0	0	0	618	49
11	0	0	0	0	583	49
12	0	0	0	0	587	49
13	0	0	0	0	603	49
14	0	0	0	0	626	49
15	0	0	0	0	627	49
0	0	0	0	0	603	49
1	0	0	0	0	608	49
2	0	0	0	0	626	49
3	0	0	0	0	624	49
4	0	0	0	0	622	49
5	0	0	0	0	627	49
6	0	0	0	0	644	49
7	0	0	0	0	631	49
8	0	0	0	0	678	49
9	0	0	0	0	633	49
10	0	0	0	0	613	49
11	0	0	0	0	633	49
12	0	0	0	0	625	49
13	0	0	0	0	638	49
14	0	0	0	0	640	49
15	0	0	0	0	647	49
0	0	0	0	0	624	49
1	0	0	0	0	630	49
2	0	0	0	0	646	48
3	0	0	0	0	639	49
4	0	0	0	0	632	49
5	0	0	0	0	643	49
6	0	0	0	0	625	49
7	0	0	0	0	615	49
8	0	0	0	0	621	49
9	0	0	0	0	625	49
10	0	0	0	0	636	49
11	0	0	0	0	615	49
12	0	0	0	0	609	49
13	0	0	0	0	616	49
14	0	0	0	0	628	50
15	0	0	0	0	629	49
0	0	0	0	0	632	49
1	0	0	0	0	642	50
2	0	0	0	0	636	49
3	0	0	0	0	653	50
4	0	0	0	0	646	50
5	0	0	0	0	639	50
6	0	0	0	0	624	50
7	0	0	0	0	607	50
8	0	0	0	0	608	50
9	0	0	0	0	618	50
10	0	0	0	0	622	50
11	0	0	0	0	621	50
12	0	0	0	0	619	50
13	0	0	0	0	625	50
14	0	0	0	0	631	50
15	0	0	0	0	632	50
0	0	0	0	0	629	50
1	0	0	0	0	631	50
2	0	0	0	0	632	50
3	0	0	0	0	629	49
4	0	0	0	0	627	50
5	0	0	0	0	634	50
6	0	0	0	0	640	50
7	0	0	0	0	637	50
8	0	0	0	0	634	50
9	0	0	0	0	637	50
10	0	0	0	0	634	49
11	0	0	0	0	611	50
12	0	0	0	0	611	50
13	0	0	0	0	617	50
14	0	0	0	0	621	50
15	0	0	0	0	632	50
0	0	0	0	0	632	50
1	0	0	0	0	636	49
2	0	0	0	0	634	49
3	0	0	0	0	630	50
4	0	0	0	0	624	50
5	0	0	0	0	625	50
6	0	0	0	0	634	50
7	0	0	0	0	633	50
8	0	0	0	0	630	50
9	0	0	0	0	637	50
10	0	0	0	0	637	50
11	0	0	0	0	632	50
12	0	0	0	0	624	50
13	0	0	0	0	625	49
14	0	0	0	0	624	50
15	0	0	0	0	625	50
0	0	0	0	0	625	50
1	0	0	0	0	630	50
2	0	0	0	0	632	50
3	0	0	0	0	626	50
4	0	0	0	0	623	49
5	0	0	0	0	633	50
6	0	0	0	0	634	50
7	0	0	0	0	625	50
8	0	0	0	0	625	50
9	0	0	0	0	630	50
10	0	0	0	0	636	50
11	0	0	0	0	629	50
12	0	0	0	0	625	50
13	0	0	0	0	630	50
14	0	0	0	0	634	50
15	0	0	0	0	628	50
0	0	0	0	0	624	50
1	0	0	0	0	629	51
2	0	0	0	0	632	50
3	0	0	0	0	630	51
4	0	0	0	0	620	51
5	0	0	0	0	623	51
6	0	0	0	0	632	51
7	0	0	0	0	627	51
8	0	0	0	0	623	51
9	0	0	0	0	625	51
10	0	0	0	0	635	51
11	0	0	0	0	636	51
12	0	0	0	0	627	51
13	0	0	0	0	629	50
14	0	0	0	0	630	51
15	0	0	0	0	627	51
0	0	0	0	0	627	51
1	0	0	0	0	638	51
2	0	0	0	0	640	51
3	0	0	0	0	639	51
4	0	0	0	0	615	51
5	0	0	0	0	636	51
6	0	0	0	0	606	51
7	0	0	0	0	617	51
8	0	0	0	0	608	51
9	0	0	0	0	615	51
10	0	0	0	0	631	51
11	0	0	0	0	627	51
12	0	0	0	0	627	50
13	0	0	0	0	628	51
14	0	0	0	0	628	51
15	0	0	0	0	623	51
0	0	0	0	0	621	51
1	0	0	0	0	628	51
2	0	0	0	0	637	51
3	0	0	0	0	635	50
4	0	0	0	0	628	51
5	0	0	0	0	629	51
6	0	0	0	0	628	51
7	0	0	0	0	622	51
8	0	0	0	0	620	51
9	0	0	0	0	626	51
10	0	0	0	0	633	51
11	0	0	0	0	627	51
12	0	0	0	0	624	52
13	0	0	0	0	630	52
14	0	0	0	0	632	52
15	0	0	0	0	622	52
0	0	0	0	0	620	51
1	0	0	0	0	630	52
2	0	0	0	0	638	52
3	0	0	0	0	638	52
4	0	0	0	0	628	52
5	0	0	0	0	624	52
6	0	0	0	0	621	52
7	0	0	0	0	619	52
8	0	0	0	0	622	52
9	0	0	0	0	634	52
10	0	0	0	0	641	52
11	0	0	0	0	633	52
12	0	0	0	0	624	53
13	0	0	0	0	626	53
14	0	0	0	0	630	53
15	0	0	0	0	629	53
0	0	0	0	0	626	53
1	0	0	0	0	627	53
2	0	0	0	0	628	54
3	0	0	0	0	623	54
4	0	0	0	0	623	54
5	0	0	0	0	632	54
6	0	0	0	0	641	54
7	0	0	0	0	635	54
8	0	0	0	0	629	54
9	0	0	0	0	627	55
10	0	0	0	0	631	55
11	0	0	0	0	625	55
12	0	0	0	0	624	55
13	0	0	0	0	630	55
14	0	0	0	0	631	55
15	0	0	0	0	625	54
0	0	0	0	0	620	55
