title,intro
0	0	0	0	0	179
1	0	0	0	0	179
2	0	0	0	0	179
3	0	0	0	0	178
4	0	0	0	0	178
5	0	0	0	0	178
6	0	0	0	0	178
7	0	0	0	0	178
8	0	0	0	0	178
9	0	0	0	0	178
10	0	0	0	0	178
11	0	0	0	0	177
12	0	0	0	0	178
13	0	0	0	0	178
14	0	0	0	0	177
15	0	0	0	0	177
0	0	0	0	0	177
1	0	0	0	0	177
2	0	0	0	0	177
3	0	0	0	0	177
4	0	0	0	0	177
5	0	0	0	0	177
6	0	0	0	0	177
7	0	0	0	0	177
8	0	0	0	0	177
9	0	0	0	0	177
10	0	0	0	0	177
11	0	0	0	0	177
12	0	0	0	0	177
13	0	0	0	0	177
14	0	0	0	0	177
15	0	0	0	0	177
0	0	0	0	0	177
1	0	0	0	0	177
2	0	0	0	0	177
3	0	0	0	0	177
4	0	0	0	0	177
5	0	0	0	0	177
6	0	0	0	0	177
7	0	0	0	0	177
8	0	0	0	0	177
9	0	0	0	0	177
10	0	0	0	0	177
11	0	0	0	0	177
12	0	0	0	0	177
13	0	0	0	0	177
14	0	0	0	0	177
15	0	0	0	0	177
0	0	0	0	0	177
1	0	0	0	0	177
2	0	0	0	0	177
3	0	0	0	0	177
4	0	0	0	0	177
5	0	0	0	0	177
6	0	0	0	0	177
7	0	0	0	0	177
8	0	0	0	0	177
9	0	0	0	0	177
10	0	0	0	0	177
11	0	0	0	0	177
12	0	0	0	0	177
13	0	0	0	0	177
14	0	0	0	0	177
15	0	0	0	0	177
0	0	0	0	0	177
1	0	0	0	0	177
2	0	0	0	0	177
3	0	0	0	0	177
4	0	0	0	0	177
5	0	0	0	0	177
6	0	0	0	0	177
7	0	0	0	0	177
8	0	0	0	0	177
9	0	0	0	0	177
10	0	0	0	0	177
11	0	0	0	0	177
12	0	0	0	0	177
13	0	0	0	0	177
14	0	0	0	0	177
15	0	0	0	0	177
0	0	0	0	0	177
1	0	0	0	0	177
2	0	0	0	0	177
3	0	0	0	0	177
4	0	0	0	0	177
5	0	0	0	0	177
6	0	0	0	0	177
7	0	0	0	0	177
8	0	0	0	0	177
9	0	0	0	0	177
10	0	0	0	0	177
11	0	0	0	0	177
12	0	0	0	0	177
13	0	0	0	0	177
14	0	0	0	0	177
15	0	0	0	0	177
0	0	0	0	0	177
1	0	0	0	0	177
2	0	0	0	0	177
3	0	0	0	0	176
4	0	0	0	0	177
5	0	0	0	0	177
6	0	0	0	0	177
7	0	0	0	0	176
8	0	0	0	0	177
9	0	0	0	0	177
10	0	0	0	0	177
11	0	0	0	0	177
12	0	0	0	0	176
13	0	0	0	0	177
14	0	0	0	0	177
15	0	0	0	0	176
0	0	0	0	0	177
1	0	0	0	0	177
2	0	0	0	0	177
3	0	0	0	0	177
4	0	0	0	0	177
5	0	0	0	0	177
6	0	0	0	0	177
7	0	0	0	0	177
8	0	0	0	0	177
9	0	0	0	0	177
10	0	0	0	0	177
11	0	0	0	0	177
12	0	0	0	0	177
13	0	0	0	0	177
14	0	0	0	0	177
15	0	0	0	0	177
0	0	0	0	0	177
1	0	0	0	0	178
2	0	0	0	0	178
3	0	0	0	0	177
4	0	0	0	0	177
5	0	0	0	0	177
6	0	0	0	0	177
7	0	0	0	0	177
8	0	0	0	0	177
9	0	0	0	0	177
10	0	0	0	0	177
11	0	0	0	0	177
12	0	0	0	0	177
13	0	0	0	0	177
14	0	0	0	0	177
15	0	0	0	0	177
0	0	0	0	0	177
1	0	0	0	0	177
2	0	0	0	0	177
3	0	0	0	0	177
4	0	0	0	0	177
5	0	0	0	0	177
6	0	0	0	0	177
7	0	0	0	0	177
8	0	0	0	0	177
9	0	0	0	0	177
10	0	0	0	0	177
11	0	0	0	0	177
12	0	0	0	0	177
13	0	0	0	0	177
14	0	0	0	0	177
15	0	0	0	0	177
0	0	0	0	0	177
1	0	0	0	0	178
2	0	0	0	0	179
3	0	0	0	0	181
4	0	0	0	0	183
5	0	0	0	0	185
6	0	0	0	0	187
7	0	0	0	0	188
8	0	0	0	0	190
9	0	0	0	0	191
10	0	0	0	0	192
11	0	0	0	0	193
12	0	0	0	0	195
13	0	0	0	0	196
14	0	0	0	0	197
15	0	0	0	0	198
0	0	0	0	0	199
1	0	0	0	0	199
2	0	0	0	0	199
3	0	0	0	0	200
4	0	0	0	0	200
5	0	0	0	0	201
6	0	0	0	0	201
7	0	0	0	0	201
8	0	0	0	0	201
9	0	0	0	0	201
10	0	0	0	0	201
11	0	0	0	0	201
12	0	0	0	0	201
13	0	0	0	0	201
14	0	0	0	0	201
15	0	0	0	0	201
0	0	0	0	0	201
1	0	0	0	0	200
2	0	0	0	0	199
3	0	0	0	0	198
4	0	0	0	0	196
5	0	0	0	0	200
6	0	0	0	0	207
7	0	0	0	0	214
8	0	0	0	0	220
9	0	0	0	0	226
10	0	0	0	0	230
11	0	0	0	0	232
12	0	0	0	0	233
13	0	0	0	0	233
14	0	0	0	0	232
15	0	0	0	0	231
0	0	0	0	0	231
1	0	0	0	0	231
2	0	0	0	0	230
3	0	0	0	0	229
4	0	0	0	0	229
5	0	0	0	0	227
6	0	0	0	0	225
7	0	0	0	0	223
8	0	0	0	0	221
9	0	0	0	0	219
10	0	0	0	0	217
11	0	0	0	0	215
12	0	0	0	0	213
13	0	0	0	0	211
14	0	0	0	0	209
15	0	0	0	0	207
0	0	0	0	0	205
1	0	0	0	0	200
2	0	0	0	0	196
3	0	0	0	0	192
4	0	0	0	0	190
5	0	0	0	0	188
6	0	0	0	0	185
7	0	0	0	0	184
8	0	0	0	0	183
9	0	0	0	0	182
10	0	0	0	0	181
11	0	0	0	0	180
12	0	0	0	0	179
13	0	0	0	0	179
14	0	0	0	0	178
15	0	0	0	0	177
0	0	0	0	0	177
1	0	0	0	0	177
2	0	0	0	0	177
3	0	0	0	0	177
4	0	0	0	0	177
5	0	0	0	0	177
6	0	0	0	0	176
7	0	0	0	0	176
8	0	0	0	0	176
9	0	0	0	0	176
10	0	0	0	0	176
11	0	0	0	0	176
12	0	0	0	0	176
13	0	0	0	0	176
14	0	0	0	0	176
15	0	0	0	0	176
0	0	0	0	0	176
1	0	0	0	0	176
2	0	0	0	0	176
3	0	0	0	0	176
4	0	0	0	0	176
5	0	0	0	0	176
6	0	0	0	0	176
7	0	0	0	0	176
8	0	0	0	0	176
9	0	0	0	0	176
10	0	0	0	0	176
11	0	0	0	0	176
12	0	0	0	0	176
13	0	0	0	0	176
14	0	0	0	0	176
15	0	0	0	0	176
0	0	0	0	0	176
1	0	0	0	0	176
2	0	0	0	0	176
3	0	0	0	0	176
4	0	0	0	0	176
5	0	0	0	0	176
6	0	0	0	0	176
7	0	0	0	0	176
8	0	0	0	0	176
9	0	0	0	0	176
10	0	0	0	0	176
11	0	0	0	0	176
12	0	0	0	0	176
13	0	0	0	0	176
14	0	0	0	0	176
15	0	0	0	0	176
0	0	0	0	0	176
1	0	0	0	0	176
2	0	0	0	0	176
3	0	0	0	0	176
4	0	0	0	0	176
5	0	0	0	0	176
6	0	0	0	0	176
7	0	0	0	0	176
8	0	0	0	0	176
9	0	0	0	0	176
10	0	0	0	0	176
11	0	0	0	0	176
12	0	0	0	0	176
13	0	0	0	0	176
14	0	0	0	0	176
15	0	0	0	0	176
0	0	0	0	0	176
1	0	0	0	0	176
2	0	0	0	0	176
3	0	0	0	0	176
4	0	0	0	0	176
5	0	0	0	0	176
6	0	0	0	0	176
7	0	0	0	0	176
8	0	0	0	0	176
9	0	0	0	0	177
10	0	0	0	0	176
11	0	0	0	0	176
12	0	0	0	0	176
13	0	0	0	0	177
14	0	0	0	0	177
15	0	0	0	0	177
0	0	0	0	0	177
1	0	0	0	0	177
2	0	0	0	0	177
3	0	0	0	0	177
4	0	0	0	0	177
5	0	0	0	0	177
6	0	0	0	0	177
7	0	0	0	0	177
8	0	0	0	0	178
9	0	0	0	0	178
10	0	0	0	0	178
11	0	0	0	0	178
12	0	0	0	0	178
13	0	0	0	0	178
14	0	0	0	0	178
15	0	0	0	0	178
0	0	0	0	0	179
1	0	0	0	0	179
2	0	0	0	0	179
3	0	0	0	0	179
4	0	0	0	0	179
5	0	0	0	0	179
6	0	0	0	0	180
7	0	0	0	0	181
8	0	0	0	0	183
9	0	0	0	0	184
10	0	0	0	0	185
11	0	0	0	0	187
12	0	0	0	0	189
13	0	0	0	0	191
14	0	0	0	0	192
15	0	0	0	0	192
0	0	0	0	0	193
1	0	0	0	0	194
2	0	0	0	0	195
3	0	0	0	0	195
4	0	0	0	0	195
5	0	0	0	0	194
6	0	0	0	0	193
7	0	0	0	0	193
8	0	0	0	0	193
9	0	0	0	0	199
10	0	0	0	0	206
11	0	0	0	0	213
12	0	0	0	0	220
13	0	0	0	0	225
14	0	0	0	0	230
15	0	0	0	0	233
0	0	0	0	0	237
1	0	0	0	0	240
2	0	0	0	0	242
3	0	0	0	0	244
4	0	0	0	0	246
5	0	0	0	0	248
6	0	0	0	0	249
7	0	0	0	0	251
8	0	0	0	0	252
9	0	0	0	0	253
10	0	0	0	0	254
11	0	0	0	0	255
12	0	0	0	0	255
13	0	0	0	0	256
14	0	0	0	0	256
15	0	0	0	0	257
0	0	0	0	0	257
1	0	0	0	0	257
2	0	0	0	0	258
3	0	0	0	0	258
4	0	0	0	0	258
5	0	0	0	0	259
6	0	0	0	0	259
7	0	0	0	0	259
8	0	0	0	0	259
9	0	0	0	0	260
10	0	0	0	0	260
11	0	0	0	0	260
12	0	0	0	0	260
13	0	0	0	0	261
14	0	0	0	0	261
15	0	0	0	0	261
0	0	0	0	0	262
1	0	0	0	0	262
2	0	0	0	0	262
3	0	0	0	0	262
4	0	0	0	0	262
5	0	0	0	0	262
6	0	0	0	0	262
7	0	0	0	0	262
8	0	0	0	0	262
9	0	0	0	0	262
10	0	0	0	0	261
11	0	0	0	0	261
12	0	0	0	0	260
13	0	0	0	0	260
14	0	0	0	0	260
15	0	0	0	0	260
0	0	0	0	0	259
1	0	0	0	0	259
2	0	0	0	0	257
3	0	0	0	0	256
4	0	0	0	0	255
5	0	0	0	0	254
6	0	0	0	0	253
7	0	0	0	0	251
8	0	0	0	0	250
9	0	0	0	0	249
10	0	0	0	0	248
11	0	0	0	0	247
12	0	0	0	0	246
13	0	0	0	0	245
14	0	0	0	0	245
15	0	0	0	0	245
0	0	0	0	0	245
1	0	0	0	0	245
2	0	0	0	0	245
3	0	0	0	0	245
4	0	0	0	0	245
5	0	0	0	0	245
6	0	0	0	0	244
7	0	0	0	0	243
8	0	0	0	0	242
9	0	0	0	0	240
10	0	0	0	0	238
11	0	0	0	0	236
12	0	0	0	0	235
13	0	0	0	0	233
14	0	0	0	0	232
15	0	0	0	0	231
0	0	0	0	0	230
1	0	0	0	0	229
2	0	0	0	0	229
3	0	0	0	0	228
4	0	0	0	0	228
5	0	0	0	0	228
6	0	0	0	0	229
7	0	0	0	0	229
8	0	0	0	0	230
9	0	0	0	0	231
10	0	0	0	0	231
11	0	0	0	0	232
12	0	0	0	0	233
13	0	0	0	0	233
14	0	0	0	0	233
15	0	0	0	0	233
0	0	0	0	0	233
1	0	0	0	0	233
2	0	0	0	0	233
3	0	0	0	0	233
4	0	0	0	0	232
5	0	0	0	0	232
6	0	0	0	0	231
7	0	0	0	0	231
8	0	0	0	0	231
9	0	0	0	0	231
10	0	0	0	0	231
11	0	0	0	0	230
12	0	0	0	0	230
13	0	0	0	0	230
14	0	0	0	0	230
15	0	0	0	0	229
0	0	0	0	0	229
1	0	0	0	0	229
2	0	0	0	0	229
3	0	0	0	0	229
4	0	0	0	0	229
5	0	0	0	0	230
6	0	0	0	0	230
7	0	0	0	0	230
8	0	0	0	0	230
9	0	0	0	0	230
10	0	0	0	0	230
11	0	0	0	0	230
12	0	0	0	0	230
13	0	0	0	0	230
14	0	0	0	0	229
15	0	0	0	0	228
0	0	0	0	0	228
1	0	0	0	0	228
2	0	0	0	0	228
3	0	0	0	0	228
4	0	0	0	0	228
5	0	0	0	0	228
6	0	0	0	0	228
7	0	0	0	0	228
8	0	0	0	0	229
9	0	0	0	0	229
10	0	0	0	0	229
11	0	0	0	0	230
12	0	0	0	0	230
13	0	0	0	0	230
14	0	0	0	0	230
15	0	0	0	0	230
0	0	0	0	0	230
1	0	0	0	0	230
2	0	0	0	0	230
3	0	0	0	0	230
4	0	0	0	0	230
5	0	0	0	0	230
6	0	0	0	0	230
7	0	0	0	0	230
8	0	0	0	0	229
9	0	0	0	0	230
10	0	0	0	0	230
11	0	0	0	0	230
12	0	0	0	0	230
13	0	0	0	0	230
14	0	0	0	0	230
15	0	0	0	0	229
0	0	0	0	0	229
1	0	0	0	0	229
2	0	0	0	0	229
3	0	0	0	0	229
4	0	0	0	0	229
5	0	0	0	0	229
6	0	0	0	0	229
7	0	0	0	0	229
8	0	0	0	0	229
9	0	0	0	0	229
10	0	0	0	0	229
11	0	0	0	0	229
12	0	0	0	0	230
13	0	0	0	0	230
14	0	0	0	0	230
15	0	0	0	0	230
0	0	0	0	0	230
1	0	0	0	0	230
2	0	0	0	0	230
3	0	0	0	0	230
4	0	0	0	0	230
5	0	0	0	0	230
6	0	0	0	0	230
7	0	0	0	0	229
8	0	0	0	0	230
9	0	0	0	0	230
10	0	0	0	0	230
11	0	0	0	0	231
12	0	0	0	0	231
13	0	0	0	0	231
14	0	0	0	0	231
15	0	0	0	0	231
0	0	0	0	0	231
1	0	0	0	0	231
2	0	0	0	0	230
3	0	0	0	0	229
4	0	0	0	0	228
5	0	0	0	0	227
6	0	0	0	0	226
7	0	0	0	0	225
8	0	0	0	0	224
9	0	0	0	0	223
10	0	0	0	0	221
11	0	0	0	0	220
12	0	0	0	0	220
13	0	0	0	0	220
14	0	0	0	0	219
15	0	0	0	0	218
0	0	0	0	0	218
1	0	0	0	0	217
2	0	0	0	0	216
3	0	0	0	0	211
4	0	0	0	0	207
5	0	0	0	0	204
6	0	0	0	0	202
7	0	0	0	0	199
8	0	0	0	0	198
9	0	0	0	0	196
10	0	0	0	0	195
11	0	0	0	0	194
12	0	0	0	0	193
13	0	0	0	0	192
14	0	0	0	0	192
15	0	0	0	0	191
0	0	0	0	0	191
1	0	0	0	0	191
2	0	0	0	0	190
3	0	0	0	0	190
4	0	0	0	0	190
5	0	0	0	0	190
6	0	0	0	0	190
7	0	0	0	0	189
8	0	0	0	0	189
9	0	0	0	0	190
10	0	0	0	0	190
11	0	0	0	0	191
12	0	0	0	0	191
13	0	0	0	0	192
14	0	0	0	0	192
15	0	0	0	0	192
0	0	0	0	0	192
1	0	0	0	0	193
2	0	0	0	0	193
3	0	0	0	0	193
4	0	0	0	0	193
5	0	0	0	0	193
6	0	0	0	0	193
7	0	0	0	0	193
8	0	0	0	0	193
9	0	0	0	0	193
10	0	0	0	0	193
11	0	0	0	0	193
12	0	0	0	0	193
13	0	0	0	0	193
14	0	0	0	0	193
15	0	0	0	0	193
0	0	0	0	0	193
1	0	0	0	0	193
2	0	0	0	0	192
3	0	0	0	0	192
4	0	0	0	0	191
5	0	0	0	0	191
6	0	0	0	0	190
7	0	0	0	0	190
8	0	0	0	0	191
9	0	0	0	0	191
10	0	0	0	0	191
11	0	0	0	0	191
12	0	0	0	0	191
13	0	0	0	0	192
14	0	0	0	0	192
15	0	0	0	0	192
0	0	0	0	0	192
1	0	0	0	0	192
2	0	0	0	0	192
3	0	0	0	0	192
4	0	0	0	0	192
5	0	0	0	0	193
6	0	0	0	0	192
7	0	0	0	0	193
8	0	0	0	0	193
9	0	0	0	0	193
10	0	0	0	0	193
11	0	0	0	0	193
12	0	0	0	0	193
13	0	0	0	0	193
14	0	0	0	0	193
15	0	0	0	0	193
0	0	0	0	0	193
1	0	0	0	0	193
2	0	0	0	0	193
3	0	0	0	0	193
4	0	0	0	0	193
5	0	0	0	0	194
6	0	0	0	0	194
7	0	0	0	0	195
8	0	0	0	0	195
9	0	0	0	0	195
10	0	0	0	0	195
11	0	0	0	0	194
12	0	0	0	0	194
13	0	0	0	0	194
14	0	0	0	0	194
15	0	0	0	0	193
0	0	0	0	0	193
1	0	0	0	0	192
2	0	0	0	0	191
3	0	0	0	0	190
4	0	0	0	0	189
5	0	0	0	0	189
6	0	0	0	0	188
7	0	0	0	0	188
8	0	0	0	0	188
9	0	0	0	0	188
10	0	0	0	0	187
11	0	0	0	0	187
12	0	0	0	0	187
13	0	0	0	0	187
14	0	0	0	0	187
15	0	0	0	0	187
0	0	0	0	0	187
1	0	0	0	0	187
2	0	0	0	0	186
3	0	0	0	0	186
4	0	0	0	0	186
5	0	0	0	0	186
6	0	0	0	0	186
7	0	0	0	0	186
8	0	0	0	0	186
9	0	0	0	0	186
10	0	0	0	0	186
11	0	0	0	0	186
12	0	0	0	0	186
13	0	0	0	0	186
14	0	0	0	0	185
15	0	0	0	0	185
0	0	0	0	0	185
1	0	0	0	0	185
2	0	0	0	0	185
3	0	0	0	0	185
4	0	0	0	0	185
5	0	0	0	0	185
6	0	0	0	0	185
7	0	0	0	0	185
8	0	0	0	0	185
9	0	0	0	0	185
10	0	0	0	0	185
11	0	0	0	0	185
12	0	0	0	0	185
13	0	0	0	0	185
14	0	0	0	0	185
15	0	0	0	0	185
0	0	0	0	0	185
1	0	0	0	0	185
2	0	0	0	0	185
3	0	0	0	0	185
4	0	0	0	0	185
5	0	0	0	0	185
6	0	0	0	0	185
7	0	0	0	0	185
8	0	0	0	0	185
9	0	0	0	0	185
10	0	0	0	0	185
11	0	0	0	0	184
12	0	0	0	0	184
13	0	0	0	0	185
14	0	0	0	0	184
15	0	0	0	0	184
0	0	0	0	0	184
1	0	0	0	0	184
2	0	0	0	0	184
3	0	0	0	0	184
4	0	0	0	0	184
5	0	0	0	0	184
6	0	0	0	0	184
7	0	0	0	0	184
8	0	0	0	0	184
9	0	0	0	0	184
10	0	0	0	0	184
11	0	0	0	0	184
12	0	0	0	0	184
13	0	0	0	0	184
14	0	0	0	0	184
15	0	0	0	0	184
0	0	0	0	0	184
1	0	0	0	0	184
2	0	0	0	0	184
3	0	0	0	0	184
4	0	0	0	0	184
5	0	0	0	0	184
6	0	0	0	0	184
7	0	0	0	0	184
8	0	0	0	0	185
9	0	0	0	0	185
10	0	0	0	0	185
11	0	0	0	0	185
12	0	0	0	0	185
13	0	0	0	0	186
14	0	0	0	0	186
15	0	0	0	0	186
0	0	0	0	0	187
1	0	0	0	0	187
2	0	0	0	0	187
3	0	0	0	0	187
4	0	0	0	0	187
5	0	0	0	0	187
6	0	0	0	0	186
7	0	0	0	0	185
8	0	0	0	0	185
9	0	0	0	0	185
10	0	0	0	0	185
11	0	0	0	0	185
12	0	0	0	0	185
13	0	0	0	0	186
14	0	0	0	0	186
15	0	0	0	0	187
0	0	0	0	0	187
1	0	0	0	0	187
2	0	0	0	0	187
3	0	0	0	0	187
4	0	0	0	0	187
5	0	0	0	0	188
6	0	0	0	0	187
7	0	0	0	0	187
8	0	0	0	0	188
9	0	0	0	0	188
10	0	0	0	0	188
11	0	0	0	0	188
12	0	0	0	0	188
13	0	0	0	0	187
14	0	0	0	0	187
15	0	0	0	0	186
0	0	0	0	0	185
1	0	0	0	0	185
2	0	0	0	0	185
3	0	0	0	0	184
4	0	0	0	0	184
5	0	0	0	0	184
6	0	0	0	0	184
7	0	0	0	0	184
8	0	0	0	0	183
9	0	0	0	0	184
10	0	0	0	0	183
11	0	0	0	0	183
12	0	0	0	0	183
13	0	0	0	0	183
14	0	0	0	0	183
15	0	0	0	0	183
0	0	0	0	0	183
1	0	0	0	0	183
2	0	0	0	0	183
3	0	0	0	0	183
4	0	0	0	0	183
5	0	0	0	0	183
6	0	0	0	0	183
7	0	0	0	0	183
8	0	0	0	0	183
9	0	0	0	0	183
10	0	0	0	0	183
11	0	0	0	0	183
12	0	0	0	0	183
13	0	0	0	0	183
14	0	0	0	0	183
15	0	0	0	0	182
0	0	0	0	0	182
1	0	0	0	0	183
2	0	0	0	0	183
3	0	0	0	0	182
4	0	0	0	0	182
5	0	0	0	0	183
6	0	0	0	0	182
7	0	0	0	0	182
8	0	0	0	0	182
9	0	0	0	0	182
10	0	0	0	0	182
11	0	0	0	0	182
12	0	0	0	0	182
13	0	0	0	0	182
14	0	0	0	0	182
15	0	0	0	0	182
0	0	0	0	0	182
1	0	0	0	0	182
2	0	0	0	0	182
3	0	0	0	0	182
4	0	0	0	0	182
5	0	0	0	0	182
6	0	0	0	0	182
7	0	0	0	0	182
8	0	0	0	0	182
9	0	0	0	0	182
10	0	0	0	0	182
11	0	0	0	0	182
12	0	0	0	0	182
13	0	0	0	0	182
14	0	0	0	0	182
15	0	0	0	0	183
0	0	0	0	0	183
1	0	0	0	0	184
2	0	0	0	0	184
3	0	0	0	0	185
4	0	0	0	0	186
5	0	0	0	0	187
6	0	0	0	0	188
7	0	0	0	0	189
8	0	0	0	0	190
9	0	0	0	0	191
10	0	0	0	0	191
11	0	0	0	0	192
12	0	0	0	0	192
13	0	0	0	0	192
14	0	0	0	0	192
15	0	0	0	0	193
0	0	0	0	0	193
1	0	0	0	0	193
2	0	0	0	0	193
3	0	0	0	0	193
4	0	0	0	0	193
5	0	0	0	0	194
6	0	0	0	0	194
7	0	0	0	0	194
8	0	0	0	0	194
9	0	0	0	0	194
10	0	0	0	0	194
11	0	0	0	0	194
12	0	0	0	0	194
13	0	0	0	0	194
14	0	0	0	0	193
15	0	0	0	0	193
0	0	0	0	0	193
1	0	0	0	0	192
2	0	0	0	0	191
3	0	0	0	0	190
4	0	0	0	0	190
5	0	0	0	0	189
6	0	0	0	0	188
7	0	0	0	0	187
8	0	0	0	0	187
9	0	0	0	0	186
10	0	0	0	0	185
11	0	0	0	0	185
12	0	0	0	0	184
13	0	0	0	0	184
14	0	0	0	0	183
15	0	0	0	0	183
0	0	0	0	0	183
1	0	0	0	0	183
2	0	0	0	0	183
3	0	0	0	0	182
4	0	0	0	0	182
5	0	0	0	0	182
6	0	0	0	0	182
7	0	0	0	0	185
8	0	0	0	0	189
9	0	0	0	0	192
10	0	0	0	0	194
11	0	0	0	0	196
12	0	0	0	0	201
13	0	0	0	0	205
14	0	0	0	0	208
15	0	0	0	0	211
0	0	0	0	0	213
1	0	0	0	0	214
2	0	0	0	0	215
3	0	0	0	0	215
4	0	0	0	0	216
5	0	0	0	0	216
6	0	0	0	0	215
7	0	0	0	0	212
8	0	0	0	0	210
9	0	0	0	0	209
10	0	0	0	0	207
11	0	0	0	0	206
12	0	0	0	0	205
13	0	0	0	0	205
14	0	0	0	0	204
15	0	0	0	0	203
0	0	0	0	0	203
1	0	0	0	0	203
2	0	0	0	0	203
3	0	0	0	0	202
4	0	0	0	0	202
5	0	0	0	0	202
6	0	0	0	0	202
7	0	0	0	0	202
8	0	0	0	0	202
9	0	0	0	0	202
10	0	0	0	0	202
11	0	0	0	0	202
12	0	0	0	0	202
13	0	0	0	0	202
14	0	0	0	0	201
15	0	0	0	0	201
0	0	0	0	0	201
1	0	0	0	0	202
2	0	0	0	0	202
3	0	0	0	0	202
4	0	0	0	0	201
5	0	0	0	0	202
6	0	0	0	0	202
7	0	0	0	0	202
8	0	0	0	0	202
9	0	0	0	0	202
10	0	0	0	0	202
11	0	0	0	0	202
12	0	0	0	0	202
13	0	0	0	0	202
14	0	0	0	0	202
15	0	0	0	0	202
0	0	0	0	0	202
1	0	0	0	0	202
2	0	0	0	0	202
3	0	0	0	0	202
4	0	0	0	0	202
5	0	0	0	0	202
6	0	0	0	0	202
7	0	0	0	0	202
8	0	0	0	0	202
9	0	0	0	0	203
10	0	0	0	0	203
11	0	0	0	0	203
12	0	0	0	0	200
13	0	0	0	0	197
14	0	0	0	0	194
15	0	0	0	0	192
0	0	0	0	0	190
1	0	0	0	0	189
2	0	0	0	0	187
3	0	0	0	0	186
4	0	0	0	0	185
5	0	0	0	0	185
6	0	0	0	0	184
7	0	0	0	0	184
8	0	0	0	0	184
9	0	0	0	0	185
10	0	0	0	0	185
11	0	0	0	0	185
12	0	0	0	0	185
13	0	0	0	0	185
14	0	0	0	0	185
15	0	0	0	0	185
0	0	0	0	0	185
1	0	0	0	0	185
2	0	0	0	0	185
3	0	0	0	0	185
4	0	0	0	0	185
5	0	0	0	0	185
6	0	0	0	0	185
7	0	0	0	0	185
8	0	0	0	0	185
9	0	0	0	0	186
10	0	0	0	0	186
11	0	0	0	0	186
12	0	0	0	0	186
13	0	0	0	0	186
14	0	0	0	0	186
15	0	0	0	0	186
0	0	0	0	0	186
1	0	0	0	0	186
2	0	0	0	0	186
3	0	0	0	0	186
4	0	0	0	0	186
5	0	0	0	0	186
6	0	0	0	0	186
7	0	0	0	0	186
8	0	0	0	0	186
9	0	0	0	0	186
10	0	0	0	0	186
11	0	0	0	0	186
12	0	0	0	0	186
13	0	0	0	0	186
14	0	0	0	0	186
15	0	0	0	0	186
0	0	0	0	0	186
1	0	0	0	0	186
2	0	0	0	0	186
3	0	0	0	0	186
4	0	0	0	0	186
5	0	0	0	0	186
6	0	0	0	0	186
7	0	0	0	0	186
8	0	0	0	0	186
9	0	0	0	0	186
10	0	0	0	0	186
11	0	0	0	0	186
12	0	0	0	0	186
13	0	0	0	0	186
14	0	0	0	0	186
15	0	0	0	0	186
0	0	0	0	0	186
1	0	0	0	0	186
2	0	0	0	0	186
3	0	0	0	0	186
4	0	0	0	0	186
5	0	0	0	0	186
6	0	0	0	0	186
7	0	0	0	0	186
8	0	0	0	0	186
9	0	0	0	0	186
10	0	0	0	0	187
11	0	0	0	0	186
12	0	0	0	0	187
13	0	0	0	0	187
14	0	0	0	0	187
15	0	0	0	0	187
0	0	0	0	0	187
1	0	0	0	0	187
2	0	0	0	0	187
3	0	0	0	0	187
4	0	0	0	0	187
5	0	0	0	0	187
6	0	0	0	0	187
7	0	0	0	0	187
8	0	0	0	0	187
9	0	0	0	0	187
10	0	0	0	0	187
11	0	0	0	0	187
12	0	0	0	0	187
13	0	0	0	0	187
14	0	0	0	0	187
15	0	0	0	0	187
0	0	0	0	0	187
1	0	0	0	0	187
2	0	0	0	0	187
3	0	0	0	0	187
4	0	0	0	0	187
5	0	0	0	0	187
6	0	0	0	0	187
7	0	0	0	0	187
8	0	0	0	0	187
9	0	0	0	0	187
10	0	0	0	0	187
11	0	0	0	0	187
12	0	0	0	0	187
13	0	0	0	0	187
14	0	0	0	0	187
15	0	0	0	0	187
0	0	0	0	0	188
1	0	0	0	0	188
2	0	0	0	0	188
3	0	0	0	0	188
4	0	0	0	0	188
5	0	0	0	0	189
6	0	0	0	0	189
7	0	0	0	0	189
8	0	0	0	0	190
9	0	0	0	0	190
10	0	0	0	0	190
11	0	0	0	0	190
12	0	0	0	0	190
13	0	0	0	0	191
14	0	0	0	0	191
15	0	0	0	0	191
0	0	0	0	0	191
1	0	0	0	0	191
2	0	0	0	0	191
3	0	0	0	0	191
4	0	0	0	0	191
5	0	0	0	0	191
6	0	0	0	0	191
7	0	0	0	0	191
8	0	0	0	0	191
9	0	0	0	0	191
10	0	0	0	0	191
11	0	0	0	0	191
12	0	0	0	0	191
13	0	0	0	0	192
14	0	0	0	0	191
15	0	0	0	0	192
0	0	0	0	0	192
1	0	0	0	0	192
2	0	0	0	0	192
3	0	0	0	0	192
4	0	0	0	0	192
5	0	0	0	0	192
6	0	0	0	0	192
7	0	0	0	0	192
8	0	0	0	0	192
9	0	0	0	0	192
10	0	0	0	0	192
11	0	0	0	0	192
12	0	0	0	0	192
13	0	0	0	0	192
14	0	0	0	0	192
15	0	0	0	0	192
0	0	0	0	0	192
1	0	0	0	0	193
2	0	0	0	0	193
3	0	0	0	0	193
4	0	0	0	0	193
5	0	0	0	0	193
6	0	0	0	0	193
7	0	0	0	0	193
8	0	0	0	0	193
9	0	0	0	0	193
10	0	0	0	0	193
11	0	0	0	0	193
12	0	0	0	0	193
13	0	0	0	0	193
14	0	0	0	0	193
15	0	0	0	0	193
0	0	0	0	0	193
1	0	0	0	0	193
2	0	0	0	0	193
3	0	0	0	0	193
4	0	0	0	0	193
5	0	0	0	0	193
6	0	0	0	0	193
7	0	0	0	0	193
8	0	0	0	0	193
9	0	0	0	0	193
10	0	0	0	0	193
11	0	0	0	0	193
12	0	0	0	0	193
13	0	0	0	0	193
14	0	0	0	0	193
15	0	0	0	0	193
0	0	0	0	0	193
1	0	0	0	0	193
2	0	0	0	0	193
3	0	0	0	0	192
4	0	0	0	0	191
5	0	0	0	0	191
6	0	0	0	0	190
7	0	0	0	0	190
8	0	0	0	0	189
9	0	0	0	0	189
10	0	0	0	0	189
11	0	0	0	0	188
12	0	0	0	0	188
13	0	0	0	0	188
14	0	0	0	0	188
15	0	0	0	0	188
0	0	0	0	0	188
1	0	0	0	0	188
2	0	0	0	0	188
3	0	0	0	0	188
4	0	0	0	0	188
5	0	0	0	0	188
6	0	0	0	0	188
7	0	0	0	0	188
8	0	0	0	0	188
9	0	0	0	0	188
10	0	0	0	0	188
11	0	0	0	0	188
12	0	0	0	0	188
13	0	0	0	0	188
14	0	0	0	0	187
15	0	0	0	0	187
0	0	0	0	0	187
1	0	0	0	0	187
2	0	0	0	0	187
3	0	0	0	0	187
4	0	0	0	0	187
5	0	0	0	0	187
6	0	0	0	0	186
7	0	0	0	0	186
8	0	0	0	0	186
9	0	0	0	0	186
10	0	0	0	0	186
11	0	0	0	0	186
12	0	0	0	0	186
13	0	0	0	0	186
14	0	0	0	0	186
15	0	0	0	0	186
0	0	0	0	0	186
1	0	0	0	0	186
2	0	0	0	0	186
3	0	0	0	0	186
4	0	0	0	0	186
5	0	0	0	0	186
6	0	0	0	0	186
7	0	0	0	0	186
8	0	0	0	0	186
9	0	0	0	0	186
10	0	0	0	0	186
11	0	0	0	0	186
12	0	0	0	0	186
13	0	0	0	0	186
14	0	0	0	0	186
15	0	0	0	0	186
0	0	0	0	0	186
1	0	0	0	0	186
2	0	0	0	0	186
3	0	0	0	0	186
4	0	0	0	0	186
5	0	0	0	0	187
6	0	0	0	0	186
7	0	0	0	0	186
8	0	0	0	0	187
9	0	0	0	0	187
10	0	0	0	0	186
11	0	0	0	0	186
12	0	0	0	0	187
13	0	0	0	0	187
14	0	0	0	0	186
15	0	0	0	0	186
0	0	0	0	0	186
1	0	0	0	0	186
2	0	0	0	0	186
3	0	0	0	0	186
4	0	0	0	0	186
5	0	0	0	0	186
6	0	0	0	0	186
7	0	0	0	0	186
8	0	0	0	0	186
9	0	0	0	0	187
10	0	0	0	0	186
11	0	0	0	0	186
12	0	0	0	0	187
13	0	0	0	0	187
14	0	0	0	0	187
15	0	0	0	0	187
0	0	0	0	0	187
1	0	0	0	0	187
2	0	0	0	0	187
3	0	0	0	0	187
4	0	0	0	0	187
5	0	0	0	0	187
6	0	0	0	0	187
7	0	0	0	0	187
8	0	0	0	0	187
9	0	0	0	0	186
10	0	0	0	0	185
11	0	0	0	0	184
12	0	0	0	0	183
13	0	0	0	0	183
14	0	0	0	0	182
15	0	0	0	0	182
0	0	0	0	0	181
1	0	0	0	0	181
2	0	0	0	0	181
3	0	0	0	0	180
4	0	0	0	0	180
5	0	0	0	0	180
6	0	0	0	0	180
7	0	0	0	0	180
8	0	0	0	0	180
9	0	0	0	0	180
10	0	0	0	0	179
11	0	0	0	0	179
12	0	0	0	0	179
13	0	0	0	0	179
14	0	0	0	0	179
15	0	0	0	0	179
0	0	0	0	0	179
1	0	0	0	0	179
2	0	0	0	0	179
3	0	0	0	0	179
4	0	0	0	0	179
5	0	0	0	0	179
6	0	0	0	0	179
7	0	0	0	0	179
8	0	0	0	0	179
9	0	0	0	0	179
10	0	0	0	0	179
11	0	0	0	0	179
12	0	0	0	0	179
13	0	0	0	0	179
14	0	0	0	0	179
15	0	0	0	0	178
0	0	0	0	0	179
1	0	0	0	0	179
2	0	0	0	0	178
3	0	0	0	0	179
4	0	0	0	0	178
5	0	0	0	0	179
6	0	0	0	0	179
7	0	0	0	0	178
8	0	0	0	0	178
9	0	0	0	0	179
10	0	0	0	0	178
11	0	0	0	0	178
12	0	0	0	0	178
13	0	0	0	0	179
14	0	0	0	0	178
15	0	0	0	0	178
0	0	0	0	0	178
1	0	0	0	0	178
2	0	0	0	0	178
3	0	0	0	0	178
4	0	0	0	0	178
5	0	0	0	0	178
6	0	0	0	0	178
7	0	0	0	0	178
8	0	0	0	0	178
9	0	0	0	0	178
10	0	0	0	0	178
11	0	0	0	0	178
12	0	0	0	0	178
13	0	0	0	0	179
14	0	0	0	0	178
15	0	0	0	0	178
0	0	0	0	0	178
1	0	0	0	0	178
2	0	0	0	0	178
3	0	0	0	0	178
4	0	0	0	0	178
5	0	0	0	0	178
6	0	0	0	0	178
7	0	0	0	0	178
8	0	0	0	0	178
9	0	0	0	0	178
10	0	0	0	0	178
11	0	0	0	0	178
12	0	0	0	0	178
13	0	0	0	0	178
14	0	0	0	0	178
15	0	0	0	0	178
0	0	0	0	0	178
1	0	0	0	0	178
2	0	0	0	0	178
3	0	0	0	0	178
4	0	0	0	0	178
5	0	0	0	0	178
6	0	0	0	0	178
7	0	0	0	0	178
8	0	0	0	0	178
9	0	0	0	0	178
10	0	0	0	0	178
11	0	0	0	0	178
12	0	0	0	0	178
13	0	0	0	0	178
14	0	0	0	0	178
15	0	0	0	0	178
0	0	0	0	0	178
1	0	0	0	0	178
2	0	0	0	0	178
3	0	0	0	0	178
4	0	0	0	0	178
5	0	0	0	0	178
6	0	0	0	0	178
7	0	0	0	0	178
8	0	0	0	0	178
9	0	0	0	0	179
10	0	0	0	0	178
11	0	0	0	0	178
12	0	0	0	0	178
13	0	0	0	0	179
14	0	0	0	0	178
15	0	0	0	0	178
0	0	0	0	0	178
1	0	0	0	0	178
2	0	0	0	0	178
3	0	0	0	0	178
4	0	0	0	0	178
5	0	0	0	0	178
6	0	0	0	0	178
7	0	0	0	0	178
8	0	0	0	0	178
9	0	0	0	0	178
10	0	0	0	0	178
11	0	0	0	0	178
12	0	0	0	0	178
13	0	0	0	0	178
14	0	0	0	0	178
15	0	0	0	0	178
0	0	0	0	0	178
1	0	0	0	0	178
2	0	0	0	0	178
3	0	0	0	0	178
4	0	0	0	0	178
5	0	0	0	0	178
6	0	0	0	0	178
7	0	0	0	0	178
8	0	0	0	0	178
9	0	0	0	0	178
10	0	0	0	0	178
11	0	0	0	0	178
12	0	0	0	0	178
13	0	0	0	0	178
14	0	0	0	0	178
15	0	0	0	0	178
0	0	0	0	0	178
1	0	0	0	0	178
2	0	0	0	0	178
3	0	0	0	0	178
4	0	0	0	0	178
5	0	0	0	0	178
6	0	0	0	0	178
7	0	0	0	0	177
8	0	0	0	0	178
9	0	0	0	0	178
10	0	0	0	0	177
11	0	0	0	0	178
12	0	0	0	0	178
13	0	0	0	0	178
14	0	0	0	0	178
15	0	0	0	0	178
0	0	0	0	0	178
1	0	0	0	0	178
2	0	0	0	0	178
3	0	0	0	0	177
4	0	0	0	0	178
5	0	0	0	0	178
6	0	0	0	0	178
7	0	0	0	0	178
8	0	0	0	0	178
9	0	0	0	0	178
10	0	0	0	0	178
11	0	0	0	0	178
12	0	0	0	0	178
13	0	0	0	0	178
14	0	0	0	0	178
15	0	0	0	0	178
0	0	0	0	0	178
1	0	0	0	0	178
2	0	0	0	0	178
3	0	0	0	0	178
4	0	0	0	0	178
5	0	0	0	0	178
6	0	0	0	0	178
7	0	0	0	0	178
8	0	0	0	0	178
9	0	0	0	0	178
10	0	0	0	0	178
11	0	0	0	0	178
12	0	0	0	0	178
13	0	0	0	0	178
14	0	0	0	0	178
15	0	0	0	0	178
0	0	0	0	0	178
1	0	0	0	0	178
2	0	0	0	0	178
3	0	0	0	0	178
4	0	0	0	0	178
5	0	0	0	0	179
6	0	0	0	0	179
7	0	0	0	0	178
8	0	0	0	0	179
9	0	0	0	0	179
10	0	0	0	0	179
11	0	0	0	0	178
12	0	0	0	0	179
13	0	0	0	0	179
14	0	0	0	0	179
15	0	0	0	0	179
0	0	0	0	0	179
1	0	0	0	0	179
2	0	0	0	0	179
3	0	0	0	0	179
4	0	0	0	0	179
5	0	0	0	0	179
6	0	0	0	0	179
7	0	0	0	0	179
8	0	0	0	0	179
9	0	0	0	0	179
10	0	0	0	0	179
11	0	0	0	0	179
12	0	0	0	0	179
13	0	0	0	0	179
14	0	0	0	0	179
15	0	0	0	0	179
0	0	0	0	0	179
1	0	0	0	0	179
2	0	0	0	0	179
3	0	0	0	0	179
4	0	0	0	0	179
5	0	0	0	0	179
6	0	0	0	0	179
7	0	0	0	0	179
8	0	0	0	0	179
9	0	0	0	0	179
10	0	0	0	0	179
11	0	0	0	0	179
12	0	0	0	0	179
13	0	0	0	0	179
14	0	0	0	0	179
15	0	0	0	0	179
0	0	0	0	0	179
1	0	0	0	0	179
2	0	0	0	0	179
3	0	0	0	0	179
4	0	0	0	0	179
5	0	0	0	0	179
6	0	0	0	0	179
7	0	0	0	0	179
8	0	0	0	0	179
9	0	0	0	0	179
10	0	0	0	0	179
11	0	0	0	0	179
12	0	0	0	0	179
13	0	0	0	0	179
14	0	0	0	0	179
15	0	0	0	0	179
0	0	0	0	0	179
1	0	0	0	0	179
2	0	0	0	0	179
3	0	0	0	0	179
4	0	0	0	0	179
5	0	0	0	0	179
6	0	0	0	0	179
7	0	0	0	0	179
8	0	0	0	0	179
9	0	0	0	0	179
10	0	0	0	0	179
11	0	0	0	0	179
12	0	0	0	0	179
13	0	0	0	0	179
14	0	0	0	0	179
15	0	0	0	0	179
0	0	0	0	0	179
1	0	0	0	0	179
2	0	0	0	0	179
3	0	0	0	0	179
4	0	0	0	0	179
5	0	0	0	0	179
6	0	0	0	0	179
7	0	0	0	0	179
8	0	0	0	0	179
9	0	0	0	0	179
10	0	0	0	0	179
11	0	0	0	0	179
12	0	0	0	0	179
13	0	0	0	0	179
14	0	0	0	0	179
15	0	0	0	0	179
0	0	0	0	0	179
1	0	0	0	0	179
2	0	0	0	0	179
3	0	0	0	0	179
4	0	0	0	0	179
5	0	0	0	0	179
6	0	0	0	0	179
7	0	0	0	0	179
8	0	0	0	0	179
9	0	0	0	0	179
10	0	0	0	0	179
11	0	0	0	0	179
12	0	0	0	0	179
13	0	0	0	0	179
14	0	0	0	0	179
15	0	0	0	0	179
0	0	0	0	0	179
1	0	0	0	0	179
2	0	0	0	0	179
3	0	0	0	0	179
4	0	0	0	0	179
5	0	0	0	0	179
6	0	0	0	0	179
7	0	0	0	0	179
8	0	0	0	0	179
9	0	0	0	0	179
10	0	0	0	0	179
11	0	0	0	0	179
12	0	0	0	0	179
13	0	0	0	0	184
14	0	0	0	0	191
15	0	0	0	0	196
0	0	0	0	0	201
1	0	0	0	0	204
2	0	0	0	0	207
3	0	0	0	0	209
4	0	0	0	0	211
5	0	0	0	0	212
6	0	0	0	0	213
7	0	0	0	0	214
8	0	0	0	0	215
9	0	0	0	0	216
10	0	0	0	0	216
11	0	0	0	0	217
12	0	0	0	0	218
13	0	0	0	0	219
14	0	0	0	0	220
15	0	0	0	0	220
0	0	0	0	0	220
1	0	0	0	0	220
2	0	0	0	0	219
3	0	0	0	0	219
4	0	0	0	0	219
5	0	0	0	0	218
6	0	0	0	0	218
7	0	0	0	0	218
8	0	0	0	0	218
9	0	0	0	0	218
10	0	0	0	0	218
11	0	0	0	0	218
12	0	0	0	0	218
13	0	0	0	0	218
14	0	0	0	0	218
15	0	0	0	0	218
0	0	0	0	0	219
1	0	0	0	0	219
2	0	0	0	0	219
3	0	0	0	0	219
4	0	0	0	0	219
5	0	0	0	0	219
6	0	0	0	0	219
7	0	0	0	0	218
8	0	0	0	0	218
9	0	0	0	0	218
10	0	0	0	0	217
11	0	0	0	0	216
12	0	0	0	0	215
13	0	0	0	0	214
14	0	0	0	0	212
15	0	0	0	0	211
0	0	0	0	0	209
1	0	0	0	0	207
2	0	0	0	0	205
3	0	0	0	0	203
4	0	0	0	0	202
5	0	0	0	0	201
6	0	0	0	0	200
7	0	0	0	0	199
8	0	0	0	0	199
9	0	0	0	0	198
10	0	0	0	0	198
11	0	0	0	0	197
12	0	0	0	0	197
13	0	0	0	0	197
14	0	0	0	0	197
15	0	0	0	0	196
0	0	0	0	0	196
1	0	0	0	0	196
2	0	0	0	0	196
3	0	0	0	0	196
4	0	0	0	0	196
5	0	0	0	0	196
6	0	0	0	0	196
7	0	0	0	0	196
8	0	0	0	0	196
9	0	0	0	0	196
10	0	0	0	0	196
11	0	0	0	0	196
12	0	0	0	0	196
13	0	0	0	0	196
14	0	0	0	0	196
15	0	0	0	0	196
0	0	0	0	0	196
1	0	0	0	0	196
2	0	0	0	0	196
3	0	0	0	0	196
4	0	0	0	0	196
5	0	0	0	0	197
6	0	0	0	0	197
7	0	0	0	0	195
8	0	0	0	0	192
9	0	0	0	0	190
10	0	0	0	0	188
11	0	0	0	0	186
12	0	0	0	0	184
13	0	0	0	0	184
14	0	0	0	0	182
15	0	0	0	0	182
0	0	0	0	0	181
1	0	0	0	0	180
2	0	0	0	0	180
3	0	0	0	0	179
4	0	0	0	0	179
5	0	0	0	0	179
6	0	0	0	0	179
7	0	0	0	0	178
8	0	0	0	0	178
9	0	0	0	0	178
10	0	0	0	0	178
11	0	0	0	0	178
12	0	0	0	0	178
13	0	0	0	0	178
14	0	0	0	0	178
15	0	0	0	0	178
0	0	0	0	0	178
1	0	0	0	0	178
2	0	0	0	0	178
3	0	0	0	0	177
4	0	0	0	0	177
5	0	0	0	0	177
6	0	0	0	0	177
7	0	0	0	0	177
8	0	0	0	0	177
9	0	0	0	0	177
10	0	0	0	0	177
11	0	0	0	0	177
12	0	0	0	0	177
13	0	0	0	0	177
14	0	0	0	0	177
15	0	0	0	0	177
0	0	0	0	0	177
1	0	0	0	0	177
2	0	0	0	0	177
3	0	0	0	0	177
4	0	0	0	0	177
5	0	0	0	0	177
6	0	0	0	0	177
7	0	0	0	0	177
8	0	0	0	0	177
9	0	0	0	0	177
10	0	0	0	0	177
11	0	0	0	0	177
12	0	0	0	0	177
13	0	0	0	0	177
14	0	0	0	0	177
15	0	0	0	0	177
0	0	0	0	0	177
1	0	0	0	0	177
2	0	0	0	0	177
3	0	0	0	0	177
4	0	0	0	0	177
5	0	0	0	0	177
6	0	0	0	0	177
7	0	0	0	0	177
8	0	0	0	0	177
9	0	0	0	0	177
10	0	0	0	0	177
11	0	0	0	0	177
12	0	0	0	0	177
13	0	0	0	0	177
14	0	0	0	0	177
15	0	0	0	0	177
0	0	0	0	0	177
1	0	0	0	0	177
2	0	0	0	0	177
3	0	0	0	0	177
4	0	0	0	0	177
5	0	0	0	0	177
6	0	0	0	0	177
7	0	0	0	0	177
8	0	0	0	0	177
9	0	0	0	0	177
10	0	0	0	0	177
11	0	0	0	0	177
12	0	0	0	0	177
13	0	0	0	0	177
14	0	0	0	0	177
15	0	0	0	0	177
0	0	0	0	0	177
1	0	0	0	0	177
2	0	0	0	0	177
3	0	0	0	0	177
4	0	0	0	0	177
5	0	0	0	0	177
6	0	0	0	0	177
7	0	0	0	0	177
8	0	0	0	0	177
9	0	0	0	0	177
10	0	0	0	0	177
11	0	0	0	0	177
12	0	0	0	0	177
13	0	0	0	0	177
14	0	0	0	0	177
15	0	0	0	0	177
0	0	0	0	0	182
1	0	0	0	0	188
2	0	0	0	0	193
3	0	0	0	0	197
4	0	0	0	0	200
5	0	0	0	0	203
6	0	0	0	0	205
7	0	0	0	0	206
8	0	0	0	0	207
9	0	0	0	0	208
10	0	0	0	0	209
11	0	0	0	0	209
12	0	0	0	0	210
13	0	0	0	0	210
14	0	0	0	0	210
15	0	0	0	0	211
0	0	0	0	0	211
1	0	0	0	0	211
2	0	0	0	0	210
3	0	0	0	0	210
4	0	0	0	0	210
5	0	0	0	0	210
6	0	0	0	0	209
7	0	0	0	0	209
8	0	0	0	0	209
9	0	0	0	0	208
10	0	0	0	0	208
11	0	0	0	0	208
12	0	0	0	0	208
13	0	0	0	0	208
14	0	0	0	0	207
15	0	0	0	0	207
0	0	0	0	0	207
1	0	0	0	0	207
2	0	0	0	0	207
3	0	0	0	0	207
4	0	0	0	0	207
5	0	0	0	0	207
6	0	0	0	0	207
7	0	0	0	0	207
8	0	0	0	0	207
9	0	0	0	0	207
10	0	0	0	0	207
11	0	0	0	0	207
12	0	0	0	0	207
13	0	0	0	0	206
14	0	0	0	0	204
15	0	0	0	0	203
0	0	0	0	0	201
1	0	0	0	0	201
2	0	0	0	0	200
3	0	0	0	0	199
4	0	0	0	0	199
5	0	0	0	0	199
6	0	0	0	0	198
7	0	0	0	0	194
8	0	0	0	0	191
9	0	0	0	0	189
10	0	0	0	0	186
11	0	0	0	0	184
12	0	0	0	0	183
13	0	0	0	0	182
14	0	0	0	0	181
15	0	0	0	0	180
0	0	0	0	0	179
1	0	0	0	0	179
2	0	0	0	0	178
3	0	0	0	0	178
4	0	0	0	0	177
5	0	0	0	0	177
6	0	0	0	0	177
7	0	0	0	0	177
8	0	0	0	0	177
9	0	0	0	0	177
10	0	0	0	0	177
11	0	0	0	0	176
12	0	0	0	0	176
13	0	0	0	0	176
14	0	0	0	0	176
15	0	0	0	0	176
0	0	0	0	0	176
1	0	0	0	0	176
2	0	0	0	0	176
3	0	0	0	0	176
4	0	0	0	0	176
5	0	0	0	0	176
6	0	0	0	0	176
7	0	0	0	0	176
8	0	0	0	0	176
9	0	0	0	0	176
10	0	0	0	0	176
11	0	0	0	0	176
12	0	0	0	0	176
13	0	0	0	0	176
14	0	0	0	0	176
15	0	0	0	0	176
0	0	0	0	0	176
1	0	0	0	0	176
2	0	0	0	0	176
3	0	0	0	0	176
4	0	0	0	0	176
5	0	0	0	0	176
6	0	0	0	0	176
7	0	0	0	0	176
8	0	0	0	0	176
9	0	0	0	0	176
10	0	0	0	0	176
11	0	0	0	0	176
12	0	0	0	0	176
13	0	0	0	0	176
14	0	0	0	0	176
15	0	0	0	0	176
0	0	0	0	0	176
1	0	0	0	0	176
2	0	0	0	0	176
3	0	0	0	0	176
4	0	0	0	0	176
5	0	0	0	0	176
6	0	0	0	0	176
7	0	0	0	0	176
8	0	0	0	0	176
9	0	0	0	0	180
10	0	0	0	0	184
11	0	0	0	0	191
12	0	0	0	0	196
13	0	0	0	0	200
14	0	0	0	0	204
15	0	0	0	0	206
0	0	0	0	0	208
1	0	0	0	0	210
2	0	0	0	0	211
3	0	0	0	0	211
4	0	0	0	0	212
5	0	0	0	0	212
6	0	0	0	0	212
7	0	0	0	0	212
8	0	0	0	0	212
9	0	0	0	0	213
10	0	0	0	0	213
11	0	0	0	0	212
12	0	0	0	0	213
13	0	0	0	0	213
14	0	0	0	0	213
15	0	0	0	0	212
0	0	0	0	0	212
1	0	0	0	0	213
2	0	0	0	0	213
3	0	0	0	0	213
4	0	0	0	0	213
5	0	0	0	0	214
6	0	0	0	0	215
7	0	0	0	0	215
8	0	0	0	0	216
9	0	0	0	0	216
10	0	0	0	0	216
11	0	0	0	0	217
12	0	0	0	0	217
13	0	0	0	0	217
14	0	0	0	0	217
15	0	0	0	0	217
0	0	0	0	0	217
1	0	0	0	0	217
2	0	0	0	0	217
3	0	0	0	0	217
4	0	0	0	0	217
5	0	0	0	0	217
6	0	0	0	0	217
7	0	0	0	0	217
8	0	0	0	0	217
9	0	0	0	0	217
10	0	0	0	0	216
11	0	0	0	0	216
12	0	0	0	0	215
13	0	0	0	0	215
14	0	0	0	0	214
15	0	0	0	0	213
0	0	0	0	0	213
1	0	0	0	0	212
2	0	0	0	0	211
3	0	0	0	0	211
4	0	0	0	0	210
5	0	0	0	0	209
6	0	0	0	0	208
7	0	0	0	0	207
8	0	0	0	0	207
9	0	0	0	0	207
10	0	0	0	0	206
11	0	0	0	0	206
12	0	0	0	0	206
13	0	0	0	0	206
14	0	0	0	0	206
15	0	0	0	0	206
0	0	0	0	0	206
1	0	0	0	0	206
2	0	0	0	0	206
3	0	0	0	0	206
4	0	0	0	0	205
5	0	0	0	0	205
6	0	0	0	0	204
7	0	0	0	0	204
8	0	0	0	0	203
9	0	0	0	0	203
10	0	0	0	0	203
11	0	0	0	0	202
12	0	0	0	0	202
13	0	0	0	0	202
14	0	0	0	0	202
15	0	0	0	0	202
0	0	0	0	0	202
1	0	0	0	0	203
2	0	0	0	0	203
3	0	0	0	0	203
4	0	0	0	0	203
5	0	0	0	0	203
6	0	0	0	0	203
7	0	0	0	0	204
8	0	0	0	0	204
9	0	0	0	0	204
10	0	0	0	0	205
11	0	0	0	0	206
12	0	0	0	0	207
13	0	0	0	0	208
14	0	0	0	0	208
15	0	0	0	0	209
0	0	0	0	0	209
1	0	0	0	0	209
2	0	0	0	0	209
3	0	0	0	0	208
4	0	0	0	0	208
5	0	0	0	0	208
6	0	0	0	0	208
7	0	0	0	0	208
8	0	0	0	0	208
9	0	0	0	0	207
10	0	0	0	0	207
11	0	0	0	0	207
12	0	0	0	0	207
13	0	0	0	0	206
14	0	0	0	0	206
15	0	0	0	0	206
0	0	0	0	0	206
1	0	0	0	0	206
2	0	0	0	0	206
3	0	0	0	0	206
4	0	0	0	0	206
5	0	0	0	0	206
6	0	0	0	0	206
7	0	0	0	0	206
8	0	0	0	0	206
9	0	0	0	0	206
10	0	0	0	0	206
11	0	0	0	0	206
12	0	0	0	0	206
13	0	0	0	0	206
14	0	0	0	0	206
15	0	0	0	0	205
0	0	0	0	0	205
1	0	0	0	0	204
2	0	0	0	0	204
3	0	0	0	0	203
4	0	0	0	0	203
5	0	0	0	0	203
6	0	0	0	0	203
7	0	0	0	0	203
8	0	0	0	0	203
9	0	0	0	0	203
10	0	0	0	0	203
11	0	0	0	0	202
12	0	0	0	0	202
13	0	0	0	0	202
14	0	0	0	0	202
15	0	0	0	0	202
0	0	0	0	0	202
1	0	0	0	0	203
2	0	0	0	0	202
3	0	0	0	0	202
4	0	0	0	0	202
5	0	0	0	0	203
6	0	0	0	0	202
7	0	0	0	0	202
8	0	0	0	0	203
9	0	0	0	0	203
10	0	0	0	0	203
11	0	0	0	0	203
12	0	0	0	0	203
13	0	0	0	0	203
14	0	0	0	0	203
15	0	0	0	0	203
0	0	0	0	0	203
1	0	0	0	0	203
2	0	0	0	0	203
3	0	0	0	0	203
4	0	0	0	0	203
5	0	0	0	0	203
6	0	0	0	0	204
7	0	0	0	0	204
8	0	0	0	0	204
9	0	0	0	0	204
10	0	0	0	0	204
11	0	0	0	0	204
12	0	0	0	0	204
13	0	0	0	0	204
14	0	0	0	0	204
15	0	0	0	0	204
0	0	0	0	0	204
1	0	0	0	0	204
2	0	0	0	0	204
3	0	0	0	0	204
4	0	0	0	0	205
5	0	0	0	0	205
6	0	0	0	0	204
7	0	0	0	0	204
8	0	0	0	0	204
9	0	0	0	0	204
10	0	0	0	0	204
11	0	0	0	0	204
12	0	0	0	0	204
13	0	0	0	0	204
14	0	0	0	0	204
15	0	0	0	0	204
0	0	0	0	0	204
1	0	0	0	0	204
2	0	0	0	0	204
3	0	0	0	0	204
4	0	0	0	0	204
5	0	0	0	0	204
6	0	0	0	0	204
7	0	0	0	0	204
8	0	0	0	0	204
9	0	0	0	0	204
10	0	0	0	0	204
11	0	0	0	0	204
12	0	0	0	0	204
13	0	0	0	0	204
14	0	0	0	0	204
15	0	0	0	0	204
0	0	0	0	0	204
1	0	0	0	0	204
2	0	0	0	0	204
3	0	0	0	0	204
4	0	0	0	0	204
5	0	0	0	0	204
6	0	0	0	0	204
7	0	0	0	0	203
8	0	0	0	0	204
9	0	0	0	0	204
10	0	0	0	0	204
11	0	0	0	0	203
12	0	0	0	0	203
13	0	0	0	0	204
14	0	0	0	0	203
15	0	0	0	0	203
0	0	0	0	0	204
1	0	0	0	0	204
2	0	0	0	0	204
3	0	0	0	0	204
4	0	0	0	0	204
5	0	0	0	0	204
6	0	0	0	0	204
7	0	0	0	0	204
8	0	0	0	0	204
9	0	0	0	0	204
10	0	0	0	0	204
11	0	0	0	0	204
12	0	0	0	0	204
13	0	0	0	0	204
14	0	0	0	0	204
15	0	0	0	0	204
0	0	0	0	0	204
1	0	0	0	0	204
2	0	0	0	0	205
3	0	0	0	0	205
4	0	0	0	0	205
5	0	0	0	0	205
6	0	0	0	0	205
7	0	0	0	0	205
8	0	0	0	0	206
9	0	0	0	0	206
10	0	0	0	0	206
11	0	0	0	0	207
12	0	0	0	0	207
13	0	0	0	0	207
14	0	0	0	0	207
15	0	0	0	0	208
0	0	0	0	0	208
1	0	0	0	0	208
2	0	0	0	0	208
3	0	0	0	0	208
4	0	0	0	0	208
5	0	0	0	0	208
6	0	0	0	0	208
7	0	0	0	0	208
8	0	0	0	0	208
9	0	0	0	0	208
10	0	0	0	0	208
11	0	0	0	0	208
12	0	0	0	0	208
13	0	0	0	0	208
14	0	0	0	0	208
15	0	0	0	0	208
0	0	0	0	0	207
1	0	0	0	0	207
2	0	0	0	0	206
3	0	0	0	0	206
4	0	0	0	0	205
5	0	0	0	0	205
6	0	0	0	0	205
7	0	0	0	0	205
8	0	0	0	0	204
9	0	0	0	0	204
10	0	0	0	0	204
11	0	0	0	0	204
12	0	0	0	0	203
13	0	0	0	0	203
14	0	0	0	0	203
15	0	0	0	0	203
0	0	0	0	0	203
1	0	0	0	0	203
2	0	0	0	0	203
3	0	0	0	0	203
4	0	0	0	0	203
5	0	0	0	0	203
6	0	0	0	0	202
7	0	0	0	0	202
8	0	0	0	0	202
9	0	0	0	0	202
10	0	0	0	0	202
11	0	0	0	0	201
12	0	0	0	0	198
13	0	0	0	0	194
14	0	0	0	0	191
15	0	0	0	0	189
0	0	0	0	0	187
1	0	0	0	0	185
2	0	0	0	0	183
3	0	0	0	0	182
4	0	0	0	0	180
5	0	0	0	0	179
6	0	0	0	0	179
7	0	0	0	0	178
8	0	0	0	0	177
9	0	0	0	0	177
10	0	0	0	0	177
11	0	0	0	0	177
12	0	0	0	0	177
13	0	0	0	0	177
14	0	0	0	0	176
15	0	0	0	0	176
0	0	0	0	0	176
1	0	0	0	0	176
2	0	0	0	0	176
3	0	0	0	0	176
4	0	0	0	0	176
5	0	0	0	0	176
6	0	0	0	0	176
7	0	0	0	0	176
8	0	0	0	0	177
9	0	0	0	0	177
10	0	0	0	0	177
11	0	0	0	0	177
12	0	0	0	0	177
13	0	0	0	0	177
14	0	0	0	0	177
15	0	0	0	0	177
0	0	0	0	0	177
1	0	0	0	0	177
2	0	0	0	0	177
3	0	0	0	0	176
4	0	0	0	0	177
5	0	0	0	0	177
6	0	0	0	0	177
7	0	0	0	0	176
8	0	0	0	0	177
9	0	0	0	0	177
10	0	0	0	0	177
11	0	0	0	0	177
12	0	0	0	0	177
13	0	0	0	0	177
14	0	0	0	0	177
15	0	0	0	0	177
0	0	0	0	0	177
1	0	0	0	0	178
2	0	0	0	0	177
3	0	0	0	0	177
4	0	0	0	0	177
5	0	0	0	0	177
6	0	0	0	0	176
7	0	0	0	0	176
8	0	0	0	0	176
9	0	0	0	0	176
10	0	0	0	0	176
11	0	0	0	0	175
12	0	0	0	0	176
13	0	0	0	0	176
14	0	0	0	0	176
15	0	0	0	0	176
0	0	0	0	0	176
1	0	0	0	0	176
2	0	0	0	0	176
3	0	0	0	0	176
4	0	0	0	0	176
5	0	0	0	0	176
6	0	0	0	0	175
7	0	0	0	0	175
8	0	0	0	0	175
9	0	0	0	0	175
10	0	0	0	0	175
11	0	0	0	0	175
12	0	0	0	0	175
13	0	0	0	0	175
14	0	0	0	0	175
15	0	0	0	0	175
0	0	0	0	0	175
1	0	0	0	0	175
2	0	0	0	0	175
3	0	0	0	0	175
4	0	0	0	0	175
5	0	0	0	0	175
6	0	0	0	0	175
7	0	0	0	0	175
8	0	0	0	0	175
9	0	0	0	0	175
10	0	0	0	0	175
11	0	0	0	0	175
12	0	0	0	0	175
13	0	0	0	0	175
14	0	0	0	0	175
15	0	0	0	0	175
0	0	0	0	0	174
1	0	0	0	0	175
2	0	0	0	0	175
3	0	0	0	0	174
4	0	0	0	0	174
5	0	0	0	0	174
6	0	0	0	0	174
7	0	0	0	0	174
8	0	0	0	0	174
9	0	0	0	0	174
10	0	0	0	0	174
11	0	0	0	0	174
12	0	0	0	0	174
13	0	0	0	0	174
14	0	0	0	0	174
15	0	0	0	0	174
0	0	0	0	0	174
1	0	0	0	0	174
2	0	0	0	0	174
3	0	0	0	0	174
4	0	0	0	0	173
5	0	0	0	0	173
6	0	0	0	0	173
7	0	0	0	0	173
8	0	0	0	0	173
9	0	0	0	0	173
10	0	0	0	0	173
11	0	0	0	0	173
12	0	0	0	0	173
13	0	0	0	0	174
14	0	0	0	0	173
15	0	0	0	0	173
0	0	0	0	0	174
1	0	0	0	0	174
2	0	0	0	0	174
3	0	0	0	0	174
4	0	0	0	0	174
5	0	0	0	0	174
6	0	0	0	0	174
7	0	0	0	0	174
8	0	0	0	0	174
9	0	0	0	0	174
10	0	0	0	0	174
11	0	0	0	0	173
12	0	0	0	0	173
13	0	0	0	0	173
14	0	0	0	0	173
15	0	0	0	0	173
0	0	0	0	0	173
1	0	0	0	0	173
2	0	0	0	0	173
3	0	0	0	0	173
4	0	0	0	0	173
5	0	0	0	0	173
6	0	0	0	0	173
7	0	0	0	0	172
8	0	0	0	0	172
9	0	0	0	0	173
10	0	0	0	0	172
11	0	0	0	0	172
12	0	0	0	0	172
13	0	0	0	0	173
14	0	0	0	0	172
15	0	0	0	0	172
0	0	0	0	0	172
1	0	0	0	0	173
2	0	0	0	0	172
3	0	0	0	0	172
4	0	0	0	0	172
5	0	0	0	0	172
6	0	0	0	0	172
7	0	0	0	0	172
8	0	0	0	0	172
9	0	0	0	0	172
10	0	0	0	0	172
11	0	0	0	0	172
12	0	0	0	0	172
13	0	0	0	0	172
14	0	0	0	0	172
15	0	0	0	0	172
0	0	0	0	0	172
1	0	0	0	0	172
2	0	0	0	0	172
3	0	0	0	0	172
4	0	0	0	0	172
5	0	0	0	0	172
6	0	0	0	0	172
7	0	0	0	0	172
8	0	0	0	0	172
9	0	0	0	0	172
10	0	0	0	0	172
11	0	0	0	0	172
12	0	0	0	0	172
13	0	0	0	0	172
14	0	0	0	0	172
15	0	0	0	0	172
0	0	0	0	0	172
1	0	0	0	0	172
2	0	0	0	0	172
3	0	0	0	0	172
4	0	0	0	0	172
5	0	0	0	0	172
6	0	0	0	0	172
7	0	0	0	0	172
8	0	0	0	0	172
9	0	0	0	0	172
10	0	0	0	0	172
11	0	0	0	0	172
12	0	0	0	0	172
13	0	0	0	0	172
14	0	0	0	0	172
15	0	0	0	0	172
0	0	0	0	0	172
1	0	0	0	0	172
2	0	0	0	0	172
3	0	0	0	0	172
4	0	0	0	0	172
5	0	0	0	0	172
6	0	0	0	0	172
7	0	0	0	0	172
8	0	0	0	0	172
9	0	0	0	0	172
10	0	0	0	0	172
11	0	0	0	0	172
12	0	0	0	0	172
13	0	0	0	0	172
14	0	0	0	0	172
15	0	0	0	0	172
0	0	0	0	0	172
1	0	0	0	0	172
2	0	0	0	0	172
3	0	0	0	0	172
4	0	0	0	0	172
5	0	0	0	0	172
6	0	0	0	0	172
7	0	0	0	0	172
8	0	0	0	0	172
9	0	0	0	0	172
10	0	0	0	0	172
11	0	0	0	0	172
12	0	0	0	0	172
13	0	0	0	0	172
14	0	0	0	0	172
15	0	0	0	0	172
0	0	0	0	0	172
1	0	0	0	0	172
2	0	0	0	0	172
3	0	0	0	0	172
4	0	0	0	0	172
5	0	0	0	0	172
6	0	0	0	0	172
7	0	0	0	0	172
8	0	0	0	0	172
9	0	0	0	0	172
10	0	0	0	0	172
11	0	0	0	0	172
12	0	0	0	0	172
13	0	0	0	0	172
14	0	0	0	0	172
15	0	0	0	0	172
0	0	0	0	0	172
1	0	0	0	0	172
2	0	0	0	0	172
3	0	0	0	0	172
4	0	0	0	0	172
5	0	0	0	0	172
6	0	0	0	0	172
7	0	0	0	0	171
8	0	0	0	0	172
9	0	0	0	0	172
10	0	0	0	0	171
11	0	0	0	0	171
12	0	0	0	0	171
13	0	0	0	0	172
14	0	0	0	0	171
15	0	0	0	0	171
0	0	0	0	0	171
1	0	0	0	0	172
2	0	0	0	0	171
3	0	0	0	0	171
4	0	0	0	0	171
5	0	0	0	0	171
6	0	0	0	0	171
7	0	0	0	0	171
8	0	0	0	0	171
9	0	0	0	0	171
10	0	0	0	0	171
11	0	0	0	0	171
12	0	0	0	0	171
13	0	0	0	0	171
14	0	0	0	0	171
15	0	0	0	0	171
0	0	0	0	0	171
1	0	0	0	0	171
2	0	0	0	0	171
3	0	0	0	0	171
4	0	0	0	0	171
5	0	0	0	0	171
6	0	0	0	0	171
7	0	0	0	0	171
8	0	0	0	0	171
9	0	0	0	0	171
10	0	0	0	0	171
11	0	0	0	0	171
12	0	0	0	0	171
13	0	0	0	0	171
14	0	0	0	0	171
15	0	0	0	0	171
0	0	0	0	0	171
1	0	0	0	0	171
2	0	0	0	0	171
3	0	0	0	0	171
4	0	0	0	0	171
5	0	0	0	0	171
6	0	0	0	0	171
7	0	0	0	0	171
8	0	0	0	0	171
9	0	0	0	0	171
10	0	0	0	0	171
11	0	0	0	0	171
12	0	0	0	0	171
13	0	0	0	0	171
14	0	0	0	0	171
15	0	0	0	0	171
0	0	0	0	0	171
1	0	0	0	0	171
2	0	0	0	0	171
3	0	0	0	0	171
4	0	0	0	0	171
5	0	0	0	0	171
6	0	0	0	0	171
7	0	0	0	0	171
8	0	0	0	0	171
9	0	0	0	0	171
10	0	0	0	0	171
11	0	0	0	0	171
12	0	0	0	0	171
13	0	0	0	0	171
14	0	0	0	0	171
15	0	0	0	0	171
0	0	0	0	0	171
1	0	0	0	0	171
2	0	0	0	0	171
3	0	0	0	0	171
4	0	0	0	0	171
5	0	0	0	0	171
6	0	0	0	0	171
7	0	0	0	0	170
8	0	0	0	0	171
9	0	0	0	0	171
10	0	0	0	0	171
11	0	0	0	0	170
12	0	0	0	0	171
13	0	0	0	0	171
14	0	0	0	0	171
15	0	0	0	0	170
0	0	0	0	0	170
1	0	0	0	0	171
2	0	0	0	0	170
3	0	0	0	0	170
4	0	0	0	0	170
5	0	0	0	0	170
6	0	0	0	0	170
7	0	0	0	0	170
8	0	0	0	0	170
9	0	0	0	0	170
10	0	0	0	0	170
11	0	0	0	0	170
12	0	0	0	0	170
13	0	0	0	0	170
14	0	0	0	0	170
15	0	0	0	0	170
0	0	0	0	0	170
1	0	0	0	0	170
2	0	0	0	0	170
3	0	0	0	0	170
4	0	0	0	0	170
5	0	0	0	0	170
6	0	0	0	0	170
7	0	0	0	0	170
8	0	0	0	0	170
9	0	0	0	0	170
10	0	0	0	0	170
11	0	0	0	0	169
12	0	0	0	0	169
13	0	0	0	0	169
14	0	0	0	0	169
15	0	0	0	0	169
0	0	0	0	0	169
1	0	0	0	0	169
2	0	0	0	0	169
3	0	0	0	0	169
4	0	0	0	0	169
5	0	0	0	0	169
6	0	0	0	0	169
7	0	0	0	0	169
8	0	0	0	0	169
9	0	0	0	0	169
10	0	0	0	0	169
11	0	0	0	0	169
12	0	0	0	0	169
13	0	0	0	0	169
14	0	0	0	0	169
15	0	0	0	0	169
0	0	0	0	0	169
1	0	0	0	0	169
2	0	0	0	0	169
3	0	0	0	0	169
4	0	0	0	0	169
5	0	0	0	0	169
6	0	0	0	0	169
7	0	0	0	0	169
8	0	0	0	0	169
9	0	0	0	0	169
10	0	0	0	0	169
11	0	0	0	0	169
12	0	0	0	0	169
13	0	0	0	0	169
14	0	0	0	0	169
15	0	0	0	0	169
0	0	0	0	0	169
1	0	0	0	0	169
2	0	0	0	0	168
3	0	0	0	0	168
4	0	0	0	0	168
5	0	0	0	0	169
6	0	0	0	0	168
7	0	0	0	0	168
8	0	0	0	0	168
9	0	0	0	0	168
10	0	0	0	0	168
11	0	0	0	0	168
12	0	0	0	0	168
13	0	0	0	0	168
14	0	0	0	0	168
15	0	0	0	0	168
0	0	0	0	0	168
1	0	0	0	0	168
2	0	0	0	0	168
3	0	0	0	0	168
4	0	0	0	0	168
5	0	0	0	0	168
6	0	0	0	0	168
7	0	0	0	0	168
8	0	0	0	0	168
9	0	0	0	0	168
10	0	0	0	0	168
11	0	0	0	0	168
12	0	0	0	0	168
13	0	0	0	0	168
14	0	0	0	0	168
15	0	0	0	0	168
0	0	0	0	0	168
1	0	0	0	0	168
2	0	0	0	0	168
3	0	0	0	0	168
4	0	0	0	0	168
5	0	0	0	0	168
6	0	0	0	0	168
7	0	0	0	0	167
8	0	0	0	0	167
9	0	0	0	0	168
10	0	0	0	0	167
11	0	0	0	0	167
12	0	0	0	0	167
13	0	0	0	0	168
14	0	0	0	0	167
15	0	0	0	0	167
0	0	0	0	0	167
1	0	0	0	0	168
2	0	0	0	0	167
3	0	0	0	0	167
4	0	0	0	0	167
5	0	0	0	0	167
6	0	0	0	0	167
7	0	0	0	0	167
8	0	0	0	0	167
9	0	0	0	0	167
10	0	0	0	0	167
11	0	0	0	0	167
12	0	0	0	0	167
13	0	0	0	0	167
14	0	0	0	0	167
15	0	0	0	0	167
0	0	0	0	0	167
1	0	0	0	0	167
2	0	0	0	0	167
3	0	0	0	0	167
4	0	0	0	0	167
5	0	0	0	0	167
6	0	0	0	0	167
7	0	0	0	0	167
8	0	0	0	0	167
9	0	0	0	0	167
10	0	0	0	0	167
11	0	0	0	0	167
12	0	0	0	0	167
13	0	0	0	0	167
14	0	0	0	0	167
15	0	0	0	0	167
0	0	0	0	0	167
1	0	0	0	0	167
2	0	0	0	0	167
3	0	0	0	0	167
4	0	0	0	0	167
5	0	0	0	0	167
6	0	0	0	0	167
7	0	0	0	0	167
8	0	0	0	0	167
9	0	0	0	0	167
10	0	0	0	0	167
11	0	0	0	0	167
12	0	0	0	0	167
13	0	0	0	0	167
14	0	0	0	0	167
15	0	0	0	0	167
0	0	0	0	0	167
1	0	0	0	0	167
2	0	0	0	0	167
3	0	0	0	0	167
4	0	0	0	0	167
5	0	0	0	0	167
6	0	0	0	0	167
7	0	0	0	0	167
8	0	0	0	0	167
9	0	0	0	0	167
10	0	0	0	0	167
11	0	0	0	0	167
12	0	0	0	0	167
13	0	0	0	0	167
14	0	0	0	0	167
15	0	0	0	0	167
0	0	0	0	0	167
1	0	0	0	0	167
2	0	0	0	0	167
3	0	0	0	0	167
4	0	0	0	0	167
5	0	0	0	0	167
6	0	0	0	0	167
7	0	0	0	0	167
8	0	0	0	0	167
9	0	0	0	0	167
10	0	0	0	0	167
11	0	0	0	0	167
12	0	0	0	0	167
13	0	0	0	0	167
14	0	0	0	0	167
15	0	0	0	0	167
0	0	0	0	0	167
1	0	0	0	0	167
2	0	0	0	0	167
3	0	0	0	0	167
4	0	0	0	0	167
5	0	0	0	0	167
6	0	0	0	0	167
7	0	0	0	0	167
8	0	0	0	0	167
9	0	0	0	0	167
10	0	0	0	0	167
11	0	0	0	0	167
12	0	0	0	0	167
13	0	0	0	0	167
14	0	0	0	0	167
15	0	0	0	0	167
0	0	0	0	0	167
1	0	0	0	0	167
2	0	0	0	0	167
3	0	0	0	0	167
4	0	0	0	0	167
5	0	0	0	0	167
6	0	0	0	0	167
7	0	0	0	0	167
8	0	0	0	0	167
9	0	0	0	0	167
10	0	0	0	0	167
11	0	0	0	0	167
12	0	0	0	0	167
13	0	0	0	0	167
14	0	0	0	0	167
15	0	0	0	0	167
0	0	0	0	0	167
1	0	0	0	0	167
2	0	0	0	0	167
3	0	0	0	0	167
4	0	0	0	0	167
5	0	0	0	0	167
6	0	0	0	0	167
7	0	0	0	0	166
8	0	0	0	0	167
9	0	0	0	0	167
10	0	0	0	0	167
11	0	0	0	0	167
12	0	0	0	0	167
13	0	0	0	0	167
14	0	0	0	0	167
15	0	0	0	0	167
0	0	0	0	0	167
1	0	0	0	0	167
2	0	0	0	0	167
3	0	0	0	0	166
4	0	0	0	0	167
5	0	0	0	0	167
6	0	0	0	0	166
7	0	0	0	0	166
8	0	0	0	0	166
9	0	0	0	0	167
10	0	0	0	0	167
11	0	0	0	0	166
12	0	0	0	0	167
13	0	0	0	0	167
14	0	0	0	0	167
15	0	0	0	0	166
0	0	0	0	0	166
1	0	0	0	0	167
2	0	0	0	0	166
3	0	0	0	0	166
4	0	0	0	0	166
5	0	0	0	0	166
6	0	0	0	0	166
7	0	0	0	0	166
8	0	0	0	0	166
9	0	0	0	0	166
10	0	0	0	0	166
11	0	0	0	0	166
12	0	0	0	0	166
13	0	0	0	0	166
14	0	0	0	0	166
15	0	0	0	0	166
0	0	0	0	0	166
1	0	0	0	0	166
2	0	0	0	0	166
3	0	0	0	0	166
4	0	0	0	0	166
5	0	0	0	0	166
6	0	0	0	0	166
7	0	0	0	0	166
8	0	0	0	0	166
9	0	0	0	0	166
10	0	0	0	0	166
11	0	0	0	0	166
12	0	0	0	0	166
13	0	0	0	0	166
14	0	0	0	0	166
15	0	0	0	0	166
0	0	0	0	0	166
1	0	0	0	0	166
2	0	0	0	0	166
3	0	0	0	0	166
4	0	0	0	0	167
5	0	0	0	0	167
6	0	0	0	0	167
7	0	0	0	0	167
8	0	0	0	0	167
9	0	0	0	0	167
10	0	0	0	0	167
11	0	0	0	0	167
12	0	0	0	0	166
13	0	0	0	0	166
14	0	0	0	0	166
15	0	0	0	0	166
0	0	0	0	0	166
1	0	0	0	0	166
2	0	0	0	0	166
3	0	0	0	0	166
4	0	0	0	0	166
5	0	0	0	0	166
6	0	0	0	0	166
7	0	0	0	0	166
8	0	0	0	0	166
9	0	0	0	0	166
10	0	0	0	0	166
11	0	0	0	0	166
12	0	0	0	0	166
13	0	0	0	0	166
14	0	0	0	0	166
15	0	0	0	0	165
0	0	0	0	0	166
1	0	0	0	0	166
2	0	0	0	0	165
3	0	0	0	0	165
4	0	0	0	0	166
5	0	0	0	0	166
6	0	0	0	0	165
7	0	0	0	0	165
8	0	0	0	0	165
9	0	0	0	0	166
10	0	0	0	0	165
11	0	0	0	0	165
12	0	0	0	0	165
13	0	0	0	0	166
14	0	0	0	0	165
15	0	0	0	0	165
0	0	0	0	0	165
1	0	0	0	0	166
2	0	0	0	0	165
3	0	0	0	0	165
4	0	0	0	0	165
5	0	0	0	0	166
6	0	0	0	0	165
7	0	0	0	0	165
8	0	0	0	0	165
9	0	0	0	0	165
10	0	0	0	0	165
11	0	0	0	0	165
12	0	0	0	0	165
13	0	0	0	0	165
14	0	0	0	0	165
15	0	0	0	0	165
0	0	0	0	0	165
1	0	0	0	0	165
2	0	0	0	0	165
3	0	0	0	0	165
4	0	0	0	0	165
5	0	0	0	0	165
6	0	0	0	0	165
7	0	0	0	0	165
8	0	0	0	0	165
9	0	0	0	0	165
10	0	0	0	0	165
11	0	0	0	0	165
12	0	0	0	0	165
13	0	0	0	0	165
14	0	0	0	0	165
15	0	0	0	0	165
0	0	0	0	0	165
1	0	0	0	0	165
2	0	0	0	0	165
3	0	0	0	0	165
4	0	0	0	0	165
5	0	0	0	0	165
6	0	0	0	0	165
7	0	0	0	0	165
8	0	0	0	0	165
9	0	0	0	0	165
10	0	0	0	0	165
11	0	0	0	0	165
12	0	0	0	0	165
13	0	0	0	0	165
14	0	0	0	0	165
15	0	0	0	0	165
0	0	0	0	0	165
1	0	0	0	0	165
2	0	0	0	0	165
3	0	0	0	0	165
4	0	0	0	0	165
5	0	0	0	0	165
6	0	0	0	0	165
7	0	0	0	0	165
8	0	0	0	0	165
9	0	0	0	0	165
10	0	0	0	0	165
11	0	0	0	0	165
12	0	0	0	0	165
13	0	0	0	0	165
14	0	0	0	0	165
15	0	0	0	0	165
0	0	0	0	0	165
1	0	0	0	0	165
2	0	0	0	0	165
3	0	0	0	0	165
4	0	0	0	0	165
5	0	0	0	0	165
6	0	0	0	0	165
7	0	0	0	0	165
8	0	0	0	0	165
9	0	0	0	0	165
10	0	0	0	0	165
11	0	0	0	0	164
12	0	0	0	0	165
13	0	0	0	0	165
14	0	0	0	0	164
15	0	0	0	0	164
0	0	0	0	0	165
1	0	0	0	0	165
2	0	0	0	0	165
3	0	0	0	0	164
4	0	0	0	0	164
5	0	0	0	0	165
6	0	0	0	0	164
7	0	0	0	0	164
8	0	0	0	0	164
9	0	0	0	0	165
10	0	0	0	0	164
11	0	0	0	0	164
12	0	0	0	0	164
13	0	0	0	0	165
14	0	0	0	0	164
15	0	0	0	0	164
0	0	0	0	0	164
1	0	0	0	0	164
2	0	0	0	0	164
3	0	0	0	0	164
4	0	0	0	0	164
5	0	0	0	0	164
6	0	0	0	0	164
7	0	0	0	0	164
8	0	0	0	0	164
9	0	0	0	0	164
10	0	0	0	0	164
11	0	0	0	0	164
12	0	0	0	0	164
13	0	0	0	0	164
14	0	0	0	0	164
15	0	0	0	0	164
0	0	0	0	0	164
1	0	0	0	0	164
2	0	0	0	0	164
3	0	0	0	0	164
4	0	0	0	0	164
