# OpenSignals Text File Format. Version 1
# {"0C:43:14:24:80:23": {"position": 0, "device": "bitalino_rev", "device name": "0C:43:14:24:80:23", "device connection": "0C:43:14:24:80:23", "sampling rate": 100, "resolution": [4, 1, 1, 1, 1, 10], "firmware version": 1282, "comments": "", "keywords": "", "mode": 0, "sync interval": 2, "date": "2024-3-4", "time": "16:50:25.418", "channels": [3], "sensor": ["RAW"], "label": ["A3"], "column": ["nSeq", "I1", "I2", "O1", "O2", "A3"], "special": [{}], "digital IO": [0, 0, 1, 1]}}
# EndOfHeader
0	0	0	0	0	652	
1	0	0	0	0	652	
2	0	0	0	0	652	
3	0	0	0	0	652	
4	0	0	0	0	652	
5	0	0	0	0	652	
6	0	0	0	0	652	
7	0	0	0	0	651	
8	0	0	0	0	651	
9	0	0	0	0	651	
10	0	0	0	0	651	
11	0	0	0	0	651	
12	0	0	0	0	651	
13	0	0	0	0	651	
14	0	0	0	0	651	
15	0	0	0	0	651	
0	0	0	0	0	651	
1	0	0	0	0	651	
2	0	0	0	0	651	
3	0	0	0	0	650	
4	0	0	0	0	650	
5	0	0	0	0	650	
6	0	0	0	0	650	
7	0	0	0	0	650	
8	0	0	0	0	650	
9	0	0	0	0	650	
10	0	0	0	0	650	
11	0	0	0	0	650	
12	0	0	0	0	650	
13	0	0	0	0	649	
14	0	0	0	0	649	
15	0	0	0	0	649	
0	0	0	0	0	649	
1	0	0	0	0	649	
2	0	0	0	0	649	
3	0	0	0	0	649	
4	0	0	0	0	649	
5	0	0	0	0	649	
6	0	0	0	0	649	
7	0	0	0	0	649	
8	0	0	0	0	648	
9	0	0	0	0	648	
10	0	0	0	0	649	
11	0	0	0	0	648	
12	0	0	0	0	648	
13	0	0	0	0	648	
14	0	0	0	0	648	
15	0	0	0	0	648	
0	0	0	0	0	648	
1	0	0	0	0	648	
2	0	0	0	0	647	
3	0	0	0	0	647	
4	0	0	0	0	647	
5	0	0	0	0	647	
6	0	0	0	0	647	
7	0	0	0	0	647	
8	0	0	0	0	647	
9	0	0	0	0	647	
10	0	0	0	0	647	
11	0	0	0	0	647	
12	0	0	0	0	647	
13	0	0	0	0	647	
14	0	0	0	0	647	
15	0	0	0	0	647	
0	0	0	0	0	647	
1	0	0	0	0	647	
2	0	0	0	0	647	
3	0	0	0	0	647	
4	0	0	0	0	647	
5	0	0	0	0	647	
6	0	0	0	0	647	
7	0	0	0	0	647	
8	0	0	0	0	646	
9	0	0	0	0	646	
10	0	0	0	0	646	
11	0	0	0	0	646	
12	0	0	0	0	646	
13	0	0	0	0	646	
14	0	0	0	0	646	
15	0	0	0	0	646	
0	0	0	0	0	646	
1	0	0	0	0	646	
2	0	0	0	0	646	
3	0	0	0	0	646	
4	0	0	0	0	646	
5	0	0	0	0	646	
6	0	0	0	0	646	
7	0	0	0	0	645	
8	0	0	0	0	646	
9	0	0	0	0	646	
10	0	0	0	0	645	
11	0	0	0	0	645	
12	0	0	0	0	645	
13	0	0	0	0	645	
14	0	0	0	0	645	
15	0	0	0	0	645	
0	0	0	0	0	645	
1	0	0	0	0	645	
2	0	0	0	0	645	
3	0	0	0	0	644	
4	0	0	0	0	645	
5	0	0	0	0	645	
6	0	0	0	0	644	
7	0	0	0	0	644	
8	0	0	0	0	645	
9	0	0	0	0	644	
10	0	0	0	0	644	
11	0	0	0	0	644	
12	0	0	0	0	644	
13	0	0	0	0	644	
14	0	0	0	0	644	
15	0	0	0	0	644	
0	0	0	0	0	644	
1	0	0	0	0	644	
2	0	0	0	0	644	
3	0	0	0	0	644	
4	0	0	0	0	644	
5	0	0	0	0	644	
6	0	0	0	0	644	
7	0	0	0	0	644	
8	0	0	0	0	644	
9	0	0	0	0	644	
10	0	0	0	0	644	
11	0	0	0	0	643	
12	0	0	0	0	644	
13	0	0	0	0	644	
14	0	0	0	0	644	
15	0	0	0	0	644	
0	0	0	0	0	644	
1	0	0	0	0	643	
2	0	0	0	0	644	
3	0	0	0	0	643	
4	0	0	0	0	644	
5	0	0	0	0	643	
6	0	0	0	0	643	
7	0	0	0	0	643	
8	0	0	0	0	643	
9	0	0	0	0	643	
10	0	0	0	0	643	
11	0	0	0	0	643	
12	0	0	0	0	643	
13	0	0	0	0	643	
14	0	0	0	0	643	
15	0	0	0	0	643	
0	0	0	0	0	643	
1	0	0	0	0	643	
2	0	0	0	0	643	
3	0	0	0	0	643	
4	0	0	0	0	643	
5	0	0	0	0	643	
6	0	0	0	0	643	
7	0	0	0	0	643	
8	0	0	0	0	643	
9	0	0	0	0	643	
10	0	0	0	0	643	
11	0	0	0	0	642	
12	0	0	0	0	643	
13	0	0	0	0	642	
14	0	0	0	0	642	
15	0	0	0	0	642	
0	0	0	0	0	642	
1	0	0	0	0	642	
2	0	0	0	0	642	
3	0	0	0	0	642	
4	0	0	0	0	642	
5	0	0	0	0	642	
6	0	0	0	0	642	
7	0	0	0	0	642	
8	0	0	0	0	642	
9	0	0	0	0	642	
10	0	0	0	0	642	
11	0	0	0	0	642	
12	0	0	0	0	642	
13	0	0	0	0	642	
14	0	0	0	0	641	
15	0	0	0	0	641	
0	0	0	0	0	642	
1	0	0	0	0	641	
2	0	0	0	0	641	
3	0	0	0	0	641	
4	0	0	0	0	641	
5	0	0	0	0	641	
6	0	0	0	0	641	
7	0	0	0	0	641	
8	0	0	0	0	641	
9	0	0	0	0	641	
10	0	0	0	0	641	
11	0	0	0	0	641	
12	0	0	0	0	641	
13	0	0	0	0	641	
14	0	0	0	0	641	
15	0	0	0	0	641	
0	0	0	0	0	641	
1	0	0	0	0	641	
2	0	0	0	0	641	
3	0	0	0	0	640	
4	0	0	0	0	640	
5	0	0	0	0	640	
6	0	0	0	0	640	
7	0	0	0	0	640	
8	0	0	0	0	640	
9	0	0	0	0	640	
10	0	0	0	0	640	
11	0	0	0	0	640	
12	0	0	0	0	640	
13	0	0	0	0	640	
14	0	0	0	0	640	
15	0	0	0	0	639	
0	0	0	0	0	639	
1	0	0	0	0	639	
2	0	0	0	0	639	
3	0	0	0	0	639	
4	0	0	0	0	639	
5	0	0	0	0	639	
6	0	0	0	0	639	
7	0	0	0	0	639	
8	0	0	0	0	639	
9	0	0	0	0	639	
10	0	0	0	0	639	
11	0	0	0	0	639	
12	0	0	0	0	639	
13	0	0	0	0	639	
14	0	0	0	0	639	
15	0	0	0	0	639	
0	0	0	0	0	639	
1	0	0	0	0	639	
2	0	0	0	0	639	
3	0	0	0	0	639	
4	0	0	0	0	639	
5	0	0	0	0	639	
6	0	0	0	0	639	
7	0	0	0	0	639	
8	0	0	0	0	639	
9	0	0	0	0	639	
10	0	0	0	0	639	
11	0	0	0	0	639	
12	0	0	0	0	639	
13	0	0	0	0	639	
14	0	0	0	0	639	
15	0	0	0	0	639	
0	0	0	0	0	639	
1	0	0	0	0	640	
2	0	0	0	0	639	
3	0	0	0	0	640	
4	0	0	0	0	640	
5	0	0	0	0	640	
6	0	0	0	0	640	
7	0	0	0	0	640	
8	0	0	0	0	641	
9	0	0	0	0	641	
10	0	0	0	0	641	
11	0	0	0	0	641	
12	0	0	0	0	641	
13	0	0	0	0	642	
14	0	0	0	0	642	
15	0	0	0	0	642	
0	0	0	0	0	643	
1	0	0	0	0	643	
2	0	0	0	0	643	
3	0	0	0	0	643	
4	0	0	0	0	644	
5	0	0	0	0	644	
6	0	0	0	0	644	
7	0	0	0	0	645	
8	0	0	0	0	645	
9	0	0	0	0	646	
10	0	0	0	0	646	
11	0	0	0	0	646	
12	0	0	0	0	647	
13	0	0	0	0	647	
14	0	0	0	0	647	
15	0	0	0	0	648	
0	0	0	0	0	648	
1	0	0	0	0	649	
2	0	0	0	0	649	
3	0	0	0	0	650	
4	0	0	0	0	650	
5	0	0	0	0	651	
6	0	0	0	0	652	
7	0	0	0	0	652	
8	0	0	0	0	652	
9	0	0	0	0	653	
10	0	0	0	0	654	
11	0	0	0	0	654	
12	0	0	0	0	655	
13	0	0	0	0	655	
14	0	0	0	0	655	
15	0	0	0	0	656	
0	0	0	0	0	657	
1	0	0	0	0	657	
2	0	0	0	0	658	
3	0	0	0	0	658	
4	0	0	0	0	659	
5	0	0	0	0	659	
6	0	0	0	0	660	
7	0	0	0	0	660	
8	0	0	0	0	661	
9	0	0	0	0	661	
10	0	0	0	0	662	
11	0	0	0	0	663	
12	0	0	0	0	663	
13	0	0	0	0	664	
14	0	0	0	0	664	
15	0	0	0	0	664	
0	0	0	0	0	665	
1	0	0	0	0	665	
2	0	0	0	0	666	
3	0	0	0	0	666	
4	0	0	0	0	667	
5	0	0	0	0	667	
6	0	0	0	0	667	
7	0	0	0	0	668	
8	0	0	0	0	668	
9	0	0	0	0	669	
10	0	0	0	0	669	
11	0	0	0	0	669	
12	0	0	0	0	670	
13	0	0	0	0	670	
14	0	0	0	0	671	
15	0	0	0	0	671	
0	0	0	0	0	671	
1	0	0	0	0	671	
2	0	0	0	0	672	
3	0	0	0	0	672	
4	0	0	0	0	673	
5	0	0	0	0	673	
6	0	0	0	0	673	
7	0	0	0	0	673	
8	0	0	0	0	674	
9	0	0	0	0	674	
10	0	0	0	0	674	
11	0	0	0	0	674	
12	0	0	0	0	674	
13	0	0	0	0	675	
14	0	0	0	0	675	
15	0	0	0	0	675	
0	0	0	0	0	675	
1	0	0	0	0	675	
2	0	0	0	0	675	
3	0	0	0	0	675	
4	0	0	0	0	675	
5	0	0	0	0	676	
6	0	0	0	0	676	
7	0	0	0	0	676	
8	0	0	0	0	676	
9	0	0	0	0	676	
10	0	0	0	0	676	
11	0	0	0	0	676	
12	0	0	0	0	676	
13	0	0	0	0	676	
14	0	0	0	0	677	
15	0	0	0	0	677	
0	0	0	0	0	677	
1	0	0	0	0	677	
2	0	0	0	0	677	
3	0	0	0	0	677	
4	0	0	0	0	677	
5	0	0	0	0	677	
6	0	0	0	0	677	
7	0	0	0	0	677	
8	0	0	0	0	677	
9	0	0	0	0	677	
10	0	0	0	0	677	
11	0	0	0	0	677	
12	0	0	0	0	677	
13	0	0	0	0	677	
14	0	0	0	0	677	
15	0	0	0	0	677	
0	0	0	0	0	677	
1	0	0	0	0	677	
2	0	0	0	0	677	
3	0	0	0	0	677	
4	0	0	0	0	677	
5	0	0	0	0	677	
6	0	0	0	0	677	
7	0	0	0	0	677	
8	0	0	0	0	677	
9	0	0	0	0	677	
10	0	0	0	0	677	
11	0	0	0	0	677	
12	0	0	0	0	677	
13	0	0	0	0	677	
14	0	0	0	0	677	
15	0	0	0	0	677	
0	0	0	0	0	677	
1	0	0	0	0	677	
2	0	0	0	0	677	
3	0	0	0	0	677	
4	0	0	0	0	677	
5	0	0	0	0	677	
6	0	0	0	0	677	
7	0	0	0	0	677	
8	0	0	0	0	677	
9	0	0	0	0	677	
10	0	0	0	0	677	
11	0	0	0	0	677	
12	0	0	0	0	677	
13	0	0	0	0	677	
14	0	0	0	0	677	
15	0	0	0	0	677	
0	0	0	0	0	677	
1	0	0	0	0	677	
2	0	0	0	0	677	
3	0	0	0	0	677	
4	0	0	0	0	677	
5	0	0	0	0	678	
6	0	0	0	0	678	
7	0	0	0	0	678	
8	0	0	0	0	678	
9	0	0	0	0	678	
10	0	0	0	0	678	
11	0	0	0	0	678	
12	0	0	0	0	678	
13	0	0	0	0	678	
14	0	0	0	0	678	
15	0	0	0	0	678	
0	0	0	0	0	678	
1	0	0	0	0	678	
2	0	0	0	0	678	
3	0	0	0	0	678	
4	0	0	0	0	678	
5	0	0	0	0	678	
6	0	0	0	0	678	
7	0	0	0	0	678	
8	0	0	0	0	678	
9	0	0	0	0	679	
10	0	0	0	0	679	
11	0	0	0	0	678	
12	0	0	0	0	679	
13	0	0	0	0	679	
14	0	0	0	0	679	
15	0	0	0	0	678	
0	0	0	0	0	679	
1	0	0	0	0	679	
2	0	0	0	0	679	
3	0	0	0	0	679	
4	0	0	0	0	678	
5	0	0	0	0	679	
6	0	0	0	0	679	
7	0	0	0	0	679	
8	0	0	0	0	679	
9	0	0	0	0	679	
10	0	0	0	0	679	
11	0	0	0	0	679	
12	0	0	0	0	679	
13	0	0	0	0	679	
14	0	0	0	0	678	
15	0	0	0	0	678	
0	0	0	0	0	678	
1	0	0	0	0	678	
2	0	0	0	0	678	
3	0	0	0	0	678	
4	0	0	0	0	678	
5	0	0	0	0	678	
6	0	0	0	0	678	
7	0	0	0	0	678	
8	0	0	0	0	678	
9	0	0	0	0	678	
10	0	0	0	0	678	
11	0	0	0	0	678	
12	0	0	0	0	678	
13	0	0	0	0	678	
14	0	0	0	0	678	
15	0	0	0	0	677	
0	0	0	0	0	677	
1	0	0	0	0	677	
2	0	0	0	0	677	
3	0	0	0	0	677	
4	0	0	0	0	676	
5	0	0	0	0	676	
6	0	0	0	0	676	
7	0	0	0	0	676	
8	0	0	0	0	676	
9	0	0	0	0	676	
10	0	0	0	0	676	
11	0	0	0	0	676	
12	0	0	0	0	675	
13	0	0	0	0	675	
14	0	0	0	0	675	
15	0	0	0	0	675	
0	0	0	0	0	675	
1	0	0	0	0	675	
2	0	0	0	0	675	
3	0	0	0	0	674	
4	0	0	0	0	674	
5	0	0	0	0	674	
6	0	0	0	0	674	
7	0	0	0	0	674	
8	0	0	0	0	674	
9	0	0	0	0	673	
10	0	0	0	0	673	
11	0	0	0	0	673	
12	0	0	0	0	673	
13	0	0	0	0	673	
14	0	0	0	0	672	
15	0	0	0	0	672	
0	0	0	0	0	672	
1	0	0	0	0	672	
2	0	0	0	0	671	
3	0	0	0	0	671	
4	0	0	0	0	671	
5	0	0	0	0	671	
6	0	0	0	0	671	
7	0	0	0	0	670	
8	0	0	0	0	670	
9	0	0	0	0	670	
10	0	0	0	0	670	
11	0	0	0	0	670	
12	0	0	0	0	670	
13	0	0	0	0	669	
14	0	0	0	0	669	
15	0	0	0	0	669	
0	0	0	0	0	668	
1	0	0	0	0	668	
2	0	0	0	0	668	
3	0	0	0	0	668	
4	0	0	0	0	668	
5	0	0	0	0	668	
6	0	0	0	0	667	
7	0	0	0	0	667	
8	0	0	0	0	667	
9	0	0	0	0	667	
10	0	0	0	0	667	
11	0	0	0	0	666	
12	0	0	0	0	666	
13	0	0	0	0	666	
14	0	0	0	0	665	
15	0	0	0	0	665	
0	0	0	0	0	665	
1	0	0	0	0	665	
2	0	0	0	0	664	
3	0	0	0	0	664	
4	0	0	0	0	664	
5	0	0	0	0	664	
6	0	0	0	0	664	
7	0	0	0	0	664	
8	0	0	0	0	663	
9	0	0	0	0	663	
10	0	0	0	0	663	
11	0	0	0	0	662	
12	0	0	0	0	662	
13	0	0	0	0	662	
14	0	0	0	0	662	
15	0	0	0	0	661	
0	0	0	0	0	661	
1	0	0	0	0	661	
2	0	0	0	0	661	
3	0	0	0	0	660	
4	0	0	0	0	660	
5	0	0	0	0	660	
6	0	0	0	0	660	
7	0	0	0	0	659	
8	0	0	0	0	659	
9	0	0	0	0	659	
10	0	0	0	0	659	
11	0	0	0	0	659	
12	0	0	0	0	659	
13	0	0	0	0	658	
14	0	0	0	0	658	
15	0	0	0	0	658	
0	0	0	0	0	658	
1	0	0	0	0	657	
2	0	0	0	0	657	
3	0	0	0	0	657	
4	0	0	0	0	657	
5	0	0	0	0	657	
6	0	0	0	0	656	
7	0	0	0	0	656	
8	0	0	0	0	656	
9	0	0	0	0	656	
10	0	0	0	0	655	
11	0	0	0	0	655	
12	0	0	0	0	655	
13	0	0	0	0	655	
14	0	0	0	0	655	
15	0	0	0	0	655	
0	0	0	0	0	654	
1	0	0	0	0	654	
2	0	0	0	0	654	
3	0	0	0	0	654	
4	0	0	0	0	654	
5	0	0	0	0	653	
6	0	0	0	0	653	
7	0	0	0	0	653	
8	0	0	0	0	653	
9	0	0	0	0	652	
10	0	0	0	0	652	
11	0	0	0	0	652	
12	0	0	0	0	652	
13	0	0	0	0	652	
14	0	0	0	0	652	
15	0	0	0	0	651	
0	0	0	0	0	651	
1	0	0	0	0	651	
2	0	0	0	0	651	
3	0	0	0	0	650	
4	0	0	0	0	650	
5	0	0	0	0	650	
6	0	0	0	0	649	
7	0	0	0	0	649	
8	0	0	0	0	649	
9	0	0	0	0	649	
10	0	0	0	0	649	
11	0	0	0	0	648	
12	0	0	0	0	648	
13	0	0	0	0	648	
14	0	0	0	0	647	
15	0	0	0	0	647	
0	0	0	0	0	647	
1	0	0	0	0	647	
2	0	0	0	0	647	
3	0	0	0	0	647	
4	0	0	0	0	647	
5	0	0	0	0	646	
6	0	0	0	0	646	
7	0	0	0	0	646	
8	0	0	0	0	646	
9	0	0	0	0	646	
10	0	0	0	0	645	
11	0	0	0	0	645	
12	0	0	0	0	645	
13	0	0	0	0	645	
14	0	0	0	0	645	
15	0	0	0	0	644	
0	0	0	0	0	644	
1	0	0	0	0	644	
2	0	0	0	0	644	
3	0	0	0	0	643	
4	0	0	0	0	643	
5	0	0	0	0	643	
6	0	0	0	0	643	
7	0	0	0	0	643	
8	0	0	0	0	643	
9	0	0	0	0	643	
10	0	0	0	0	642	
11	0	0	0	0	642	
12	0	0	0	0	642	
13	0	0	0	0	642	
14	0	0	0	0	642	
15	0	0	0	0	641	
0	0	0	0	0	641	
1	0	0	0	0	641	
2	0	0	0	0	641	
3	0	0	0	0	641	
4	0	0	0	0	641	
5	0	0	0	0	641	
6	0	0	0	0	640	
7	0	0	0	0	640	
8	0	0	0	0	640	
9	0	0	0	0	640	
10	0	0	0	0	640	
11	0	0	0	0	639	
12	0	0	0	0	639	
13	0	0	0	0	639	
14	0	0	0	0	639	
15	0	0	0	0	639	
0	0	0	0	0	639	
1	0	0	0	0	639	
2	0	0	0	0	638	
3	0	0	0	0	638	
4	0	0	0	0	638	
5	0	0	0	0	638	
6	0	0	0	0	638	
7	0	0	0	0	637	
8	0	0	0	0	637	
9	0	0	0	0	637	
10	0	0	0	0	637	
11	0	0	0	0	637	
12	0	0	0	0	636	
13	0	0	0	0	636	
14	0	0	0	0	636	
15	0	0	0	0	636	
0	0	0	0	0	636	
1	0	0	0	0	636	
2	0	0	0	0	636	
3	0	0	0	0	635	
4	0	0	0	0	635	
5	0	0	0	0	635	
6	0	0	0	0	635	
7	0	0	0	0	634	
8	0	0	0	0	634	
9	0	0	0	0	634	
10	0	0	0	0	634	
11	0	0	0	0	633	
12	0	0	0	0	633	
13	0	0	0	0	633	
14	0	0	0	0	633	
15	0	0	0	0	633	
0	0	0	0	0	633	
1	0	0	0	0	633	
2	0	0	0	0	632	
3	0	0	0	0	632	
4	0	0	0	0	632	
5	0	0	0	0	632	
6	0	0	0	0	632	
7	0	0	0	0	632	
8	0	0	0	0	632	
9	0	0	0	0	632	
10	0	0	0	0	632	
11	0	0	0	0	632	
12	0	0	0	0	631	
13	0	0	0	0	631	
14	0	0	0	0	631	
15	0	0	0	0	631	
0	0	0	0	0	631	
1	0	0	0	0	631	
2	0	0	0	0	630	
3	0	0	0	0	630	
4	0	0	0	0	630	
5	0	0	0	0	630	
6	0	0	0	0	630	
7	0	0	0	0	630	
8	0	0	0	0	630	
9	0	0	0	0	630	
10	0	0	0	0	630	
11	0	0	0	0	629	
12	0	0	0	0	629	
13	0	0	0	0	629	
14	0	0	0	0	628	
15	0	0	0	0	628	
0	0	0	0	0	628	
1	0	0	0	0	628	
2	0	0	0	0	627	
3	0	0	0	0	627	
4	0	0	0	0	627	
5	0	0	0	0	627	
6	0	0	0	0	627	
7	0	0	0	0	626	
8	0	0	0	0	626	
9	0	0	0	0	625	
10	0	0	0	0	625	
11	0	0	0	0	625	
12	0	0	0	0	625	
13	0	0	0	0	625	
14	0	0	0	0	624	
15	0	0	0	0	624	
0	0	0	0	0	624	
1	0	0	0	0	624	
2	0	0	0	0	623	
3	0	0	0	0	623	
4	0	0	0	0	623	
5	0	0	0	0	623	
6	0	0	0	0	623	
7	0	0	0	0	622	
8	0	0	0	0	622	
9	0	0	0	0	622	
10	0	0	0	0	622	
11	0	0	0	0	622	
12	0	0	0	0	622	
13	0	0	0	0	622	
14	0	0	0	0	621	
15	0	0	0	0	621	
0	0	0	0	0	621	
1	0	0	0	0	621	
2	0	0	0	0	621	
3	0	0	0	0	621	
4	0	0	0	0	620	
5	0	0	0	0	620	
6	0	0	0	0	620	
7	0	0	0	0	620	
8	0	0	0	0	620	
9	0	0	0	0	620	
10	0	0	0	0	620	
11	0	0	0	0	620	
12	0	0	0	0	620	
13	0	0	0	0	620	
14	0	0	0	0	619	
15	0	0	0	0	619	
0	0	0	0	0	619	
1	0	0	0	0	619	
2	0	0	0	0	619	
3	0	0	0	0	619	
4	0	0	0	0	619	
5	0	0	0	0	619	
6	0	0	0	0	618	
7	0	0	0	0	618	
8	0	0	0	0	618	
9	0	0	0	0	618	
10	0	0	0	0	618	
11	0	0	0	0	617	
12	0	0	0	0	617	
13	0	0	0	0	617	
14	0	0	0	0	617	
15	0	0	0	0	617	
0	0	0	0	0	617	
1	0	0	0	0	617	
2	0	0	0	0	617	
3	0	0	0	0	616	
4	0	0	0	0	616	
5	0	0	0	0	616	
6	0	0	0	0	616	
7	0	0	0	0	616	
8	0	0	0	0	616	
9	0	0	0	0	616	
10	0	0	0	0	616	
11	0	0	0	0	615	
12	0	0	0	0	615	
13	0	0	0	0	615	
14	0	0	0	0	615	
15	0	0	0	0	615	
0	0	0	0	0	615	
1	0	0	0	0	615	
2	0	0	0	0	615	
3	0	0	0	0	615	
4	0	0	0	0	615	
5	0	0	0	0	615	
6	0	0	0	0	615	
7	0	0	0	0	614	
8	0	0	0	0	614	
9	0	0	0	0	614	
10	0	0	0	0	614	
11	0	0	0	0	614	
12	0	0	0	0	614	
13	0	0	0	0	614	
14	0	0	0	0	614	
15	0	0	0	0	614	
0	0	0	0	0	613	
1	0	0	0	0	613	
2	0	0	0	0	613	
3	0	0	0	0	613	
4	0	0	0	0	613	
5	0	0	0	0	613	
6	0	0	0	0	613	
7	0	0	0	0	613	
8	0	0	0	0	613	
9	0	0	0	0	613	
10	0	0	0	0	612	
11	0	0	0	0	612	
12	0	0	0	0	612	
13	0	0	0	0	612	
14	0	0	0	0	612	
15	0	0	0	0	612	
0	0	0	0	0	612	
1	0	0	0	0	612	
2	0	0	0	0	612	
3	0	0	0	0	612	
4	0	0	0	0	612	
5	0	0	0	0	612	
6	0	0	0	0	611	
7	0	0	0	0	611	
8	0	0	0	0	611	
9	0	0	0	0	611	
10	0	0	0	0	611	
11	0	0	0	0	611	
12	0	0	0	0	611	
13	0	0	0	0	611	
14	0	0	0	0	611	
15	0	0	0	0	611	
0	0	0	0	0	611	
1	0	0	0	0	611	
2	0	0	0	0	610	
3	0	0	0	0	610	
4	0	0	0	0	611	
5	0	0	0	0	610	
6	0	0	0	0	610	
7	0	0	0	0	610	
8	0	0	0	0	610	
9	0	0	0	0	610	
10	0	0	0	0	610	
11	0	0	0	0	610	
12	0	0	0	0	610	
13	0	0	0	0	610	
14	0	0	0	0	610	
15	0	0	0	0	610	
0	0	0	0	0	609	
1	0	0	0	0	609	
2	0	0	0	0	609	
3	0	0	0	0	609	
4	0	0	0	0	609	
5	0	0	0	0	609	
6	0	0	0	0	609	
7	0	0	0	0	609	
8	0	0	0	0	609	
9	0	0	0	0	609	
10	0	0	0	0	609	
11	0	0	0	0	609	
12	0	0	0	0	609	
13	0	0	0	0	609	
14	0	0	0	0	608	
15	0	0	0	0	608	
0	0	0	0	0	608	
1	0	0	0	0	608	
2	0	0	0	0	608	
3	0	0	0	0	608	
4	0	0	0	0	608	
5	0	0	0	0	608	
6	0	0	0	0	608	
7	0	0	0	0	608	
8	0	0	0	0	608	
9	0	0	0	0	608	
10	0	0	0	0	607	
11	0	0	0	0	607	
12	0	0	0	0	607	
13	0	0	0	0	607	
14	0	0	0	0	607	
15	0	0	0	0	607	
0	0	0	0	0	607	
1	0	0	0	0	607	
2	0	0	0	0	607	
3	0	0	0	0	606	
4	0	0	0	0	606	
5	0	0	0	0	606	
6	0	0	0	0	606	
7	0	0	0	0	606	
8	0	0	0	0	606	
9	0	0	0	0	606	
10	0	0	0	0	606	
11	0	0	0	0	606	
12	0	0	0	0	606	
13	0	0	0	0	606	
14	0	0	0	0	606	
15	0	0	0	0	606	
0	0	0	0	0	605	
1	0	0	0	0	606	
2	0	0	0	0	605	
3	0	0	0	0	605	
4	0	0	0	0	605	
5	0	0	0	0	605	
6	0	0	0	0	605	
7	0	0	0	0	605	
8	0	0	0	0	605	
9	0	0	0	0	605	
10	0	0	0	0	605	
11	0	0	0	0	605	
12	0	0	0	0	605	
13	0	0	0	0	605	
14	0	0	0	0	604	
15	0	0	0	0	605	
0	0	0	0	0	604	
1	0	0	0	0	604	
2	0	0	0	0	604	
3	0	0	0	0	604	
4	0	0	0	0	604	
5	0	0	0	0	604	
6	0	0	0	0	604	
7	0	0	0	0	604	
8	0	0	0	0	604	
9	0	0	0	0	604	
10	0	0	0	0	604	
11	0	0	0	0	604	
12	0	0	0	0	604	
13	0	0	0	0	604	
14	0	0	0	0	604	
15	0	0	0	0	604	
0	0	0	0	0	604	
1	0	0	0	0	604	
2	0	0	0	0	604	
3	0	0	0	0	603	
4	0	0	0	0	603	
5	0	0	0	0	603	
6	0	0	0	0	603	
7	0	0	0	0	603	
8	0	0	0	0	603	
9	0	0	0	0	603	
10	0	0	0	0	603	
11	0	0	0	0	603	
12	0	0	0	0	603	
13	0	0	0	0	603	
14	0	0	0	0	603	
15	0	0	0	0	603	
0	0	0	0	0	603	
1	0	0	0	0	603	
2	0	0	0	0	602	
3	0	0	0	0	602	
4	0	0	0	0	602	
5	0	0	0	0	602	
6	0	0	0	0	602	
7	0	0	0	0	602	
8	0	0	0	0	602	
9	0	0	0	0	602	
10	0	0	0	0	602	
11	0	0	0	0	602	
12	0	0	0	0	602	
13	0	0	0	0	602	
14	0	0	0	0	602	
15	0	0	0	0	601	
0	0	0	0	0	601	
1	0	0	0	0	601	
2	0	0	0	0	601	
3	0	0	0	0	601	
4	0	0	0	0	601	
5	0	0	0	0	601	
6	0	0	0	0	601	
7	0	0	0	0	601	
8	0	0	0	0	601	
9	0	0	0	0	601	
10	0	0	0	0	601	
11	0	0	0	0	601	
12	0	0	0	0	601	
13	0	0	0	0	601	
14	0	0	0	0	601	
15	0	0	0	0	601	
0	0	0	0	0	601	
1	0	0	0	0	601	
2	0	0	0	0	601	
3	0	0	0	0	601	
4	0	0	0	0	601	
5	0	0	0	0	601	
6	0	0	0	0	601	
7	0	0	0	0	601	
8	0	0	0	0	601	
9	0	0	0	0	601	
10	0	0	0	0	601	
11	0	0	0	0	601	
12	0	0	0	0	601	
13	0	0	0	0	601	
14	0	0	0	0	600	
15	0	0	0	0	600	
0	0	0	0	0	600	
1	0	0	0	0	600	
2	0	0	0	0	600	
3	0	0	0	0	600	
4	0	0	0	0	600	
5	0	0	0	0	600	
6	0	0	0	0	600	
7	0	0	0	0	600	
8	0	0	0	0	600	
9	0	0	0	0	600	
10	0	0	0	0	600	
11	0	0	0	0	600	
12	0	0	0	0	600	
13	0	0	0	0	600	
14	0	0	0	0	600	
15	0	0	0	0	600	
0	0	0	0	0	600	
1	0	0	0	0	600	
2	0	0	0	0	600	
3	0	0	0	0	600	
4	0	0	0	0	600	
5	0	0	0	0	600	
6	0	0	0	0	600	
7	0	0	0	0	600	
8	0	0	0	0	600	
9	0	0	0	0	599	
10	0	0	0	0	599	
11	0	0	0	0	599	
12	0	0	0	0	599	
13	0	0	0	0	599	
14	0	0	0	0	599	
15	0	0	0	0	599	
0	0	0	0	0	599	
1	0	0	0	0	599	
2	0	0	0	0	599	
3	0	0	0	0	599	
4	0	0	0	0	599	
5	0	0	0	0	599	
6	0	0	0	0	598	
7	0	0	0	0	598	
8	0	0	0	0	598	
9	0	0	0	0	598	
10	0	0	0	0	598	
11	0	0	0	0	598	
12	0	0	0	0	598	
13	0	0	0	0	598	
14	0	0	0	0	598	
15	0	0	0	0	598	
0	0	0	0	0	598	
1	0	0	0	0	598	
2	0	0	0	0	597	
3	0	0	0	0	597	
4	0	0	0	0	597	
5	0	0	0	0	597	
6	0	0	0	0	597	
7	0	0	0	0	597	
8	0	0	0	0	597	
9	0	0	0	0	597	
10	0	0	0	0	597	
11	0	0	0	0	597	
12	0	0	0	0	596	
13	0	0	0	0	597	
14	0	0	0	0	596	
15	0	0	0	0	596	
0	0	0	0	0	596	
1	0	0	0	0	596	
2	0	0	0	0	596	
3	0	0	0	0	596	
4	0	0	0	0	596	
5	0	0	0	0	596	
6	0	0	0	0	596	
7	0	0	0	0	596	
8	0	0	0	0	595	
9	0	0	0	0	596	
10	0	0	0	0	595	
11	0	0	0	0	595	
12	0	0	0	0	595	
13	0	0	0	0	595	
14	0	0	0	0	595	
15	0	0	0	0	595	
0	0	0	0	0	595	
1	0	0	0	0	595	
2	0	0	0	0	595	
3	0	0	0	0	595	
4	0	0	0	0	595	
5	0	0	0	0	595	
6	0	0	0	0	595	
7	0	0	0	0	595	
8	0	0	0	0	594	
9	0	0	0	0	595	
10	0	0	0	0	594	
11	0	0	0	0	594	
12	0	0	0	0	594	
13	0	0	0	0	594	
14	0	0	0	0	594	
15	0	0	0	0	594	
0	0	0	0	0	594	
1	0	0	0	0	594	
2	0	0	0	0	594	
3	0	0	0	0	593	
4	0	0	0	0	593	
5	0	0	0	0	594	
6	0	0	0	0	593	
7	0	0	0	0	593	
8	0	0	0	0	593	
9	0	0	0	0	593	
10	0	0	0	0	593	
11	0	0	0	0	593	
12	0	0	0	0	593	
13	0	0	0	0	593	
14	0	0	0	0	593	
15	0	0	0	0	593	
0	0	0	0	0	593	
1	0	0	0	0	593	
2	0	0	0	0	592	
3	0	0	0	0	592	
4	0	0	0	0	592	
5	0	0	0	0	592	
6	0	0	0	0	592	
7	0	0	0	0	592	
8	0	0	0	0	592	
9	0	0	0	0	592	
10	0	0	0	0	592	
11	0	0	0	0	592	
12	0	0	0	0	592	
13	0	0	0	0	592	
14	0	0	0	0	592	
15	0	0	0	0	592	
0	0	0	0	0	591	
1	0	0	0	0	592	
2	0	0	0	0	591	
3	0	0	0	0	591	
4	0	0	0	0	591	
5	0	0	0	0	591	
6	0	0	0	0	591	
7	0	0	0	0	591	
8	0	0	0	0	591	
9	0	0	0	0	591	
10	0	0	0	0	591	
11	0	0	0	0	591	
12	0	0	0	0	591	
13	0	0	0	0	591	
14	0	0	0	0	591	
15	0	0	0	0	591	
0	0	0	0	0	591	
1	0	0	0	0	591	
2	0	0	0	0	591	
3	0	0	0	0	591	
4	0	0	0	0	591	
5	0	0	0	0	591	
6	0	0	0	0	590	
7	0	0	0	0	590	
8	0	0	0	0	590	
9	0	0	0	0	590	
10	0	0	0	0	590	
11	0	0	0	0	590	
12	0	0	0	0	590	
13	0	0	0	0	590	
14	0	0	0	0	590	
15	0	0	0	0	590	
0	0	0	0	0	590	
1	0	0	0	0	590	
2	0	0	0	0	590	
3	0	0	0	0	590	
4	0	0	0	0	590	
5	0	0	0	0	590	
6	0	0	0	0	590	
7	0	0	0	0	590	
8	0	0	0	0	589	
9	0	0	0	0	590	
10	0	0	0	0	589	
11	0	0	0	0	589	
12	0	0	0	0	589	
13	0	0	0	0	589	
14	0	0	0	0	589	
15	0	0	0	0	589	
0	0	0	0	0	589	
1	0	0	0	0	589	
2	0	0	0	0	589	
3	0	0	0	0	589	
4	0	0	0	0	589	
5	0	0	0	0	589	
6	0	0	0	0	589	
7	0	0	0	0	589	
8	0	0	0	0	589	
9	0	0	0	0	589	
10	0	0	0	0	589	
11	0	0	0	0	588	
12	0	0	0	0	588	
13	0	0	0	0	588	
14	0	0	0	0	588	
15	0	0	0	0	588	
0	0	0	0	0	588	
1	0	0	0	0	588	
2	0	0	0	0	588	
3	0	0	0	0	588	
4	0	0	0	0	588	
5	0	0	0	0	588	
6	0	0	0	0	588	
7	0	0	0	0	588	
8	0	0	0	0	588	
9	0	0	0	0	588	
10	0	0	0	0	588	
11	0	0	0	0	588	
12	0	0	0	0	588	
13	0	0	0	0	588	
14	0	0	0	0	587	
15	0	0	0	0	587	
0	0	0	0	0	587	
1	0	0	0	0	587	
2	0	0	0	0	587	
3	0	0	0	0	587	
4	0	0	0	0	587	
5	0	0	0	0	587	
6	0	0	0	0	587	
7	0	0	0	0	587	
8	0	0	0	0	587	
9	0	0	0	0	587	
10	0	0	0	0	587	
11	0	0	0	0	586	
12	0	0	0	0	586	
13	0	0	0	0	586	
14	0	0	0	0	586	
15	0	0	0	0	586	
0	0	0	0	0	586	
1	0	0	0	0	586	
2	0	0	0	0	586	
3	0	0	0	0	585	
4	0	0	0	0	585	
5	0	0	0	0	585	
6	0	0	0	0	585	
7	0	0	0	0	585	
8	0	0	0	0	585	
9	0	0	0	0	585	
10	0	0	0	0	585	
11	0	0	0	0	585	
12	0	0	0	0	585	
13	0	0	0	0	585	
14	0	0	0	0	585	
15	0	0	0	0	585	
0	0	0	0	0	584	
1	0	0	0	0	584	
2	0	0	0	0	584	
3	0	0	0	0	584	
4	0	0	0	0	584	
5	0	0	0	0	584	
6	0	0	0	0	584	
7	0	0	0	0	584	
8	0	0	0	0	584	
9	0	0	0	0	584	
10	0	0	0	0	584	
11	0	0	0	0	584	
12	0	0	0	0	584	
13	0	0	0	0	584	
14	0	0	0	0	583	
15	0	0	0	0	583	
0	0	0	0	0	583	
1	0	0	0	0	583	
2	0	0	0	0	583	
3	0	0	0	0	583	
4	0	0	0	0	583	
5	0	0	0	0	583	
6	0	0	0	0	583	
7	0	0	0	0	583	
8	0	0	0	0	583	
9	0	0	0	0	583	
10	0	0	0	0	583	
11	0	0	0	0	583	
12	0	0	0	0	583	
13	0	0	0	0	583	
14	0	0	0	0	583	
15	0	0	0	0	583	
0	0	0	0	0	583	
1	0	0	0	0	583	
2	0	0	0	0	583	
3	0	0	0	0	582	
4	0	0	0	0	582	
5	0	0	0	0	582	
6	0	0	0	0	582	
7	0	0	0	0	582	
8	0	0	0	0	582	
9	0	0	0	0	582	
10	0	0	0	0	582	
11	0	0	0	0	582	
12	0	0	0	0	582	
13	0	0	0	0	582	
14	0	0	0	0	582	
15	0	0	0	0	582	
0	0	0	0	0	582	
1	0	0	0	0	582	
2	0	0	0	0	582	
3	0	0	0	0	582	
4	0	0	0	0	582	
5	0	0	0	0	582	
6	0	0	0	0	582	
7	0	0	0	0	581	
8	0	0	0	0	581	
9	0	0	0	0	581	
10	0	0	0	0	581	
11	0	0	0	0	581	
12	0	0	0	0	581	
13	0	0	0	0	581	
14	0	0	0	0	581	
15	0	0	0	0	581	
0	0	0	0	0	581	
1	0	0	0	0	581	
2	0	0	0	0	580	
3	0	0	0	0	580	
4	0	0	0	0	580	
5	0	0	0	0	580	
6	0	0	0	0	580	
7	0	0	0	0	580	
8	0	0	0	0	580	
9	0	0	0	0	580	
10	0	0	0	0	580	
11	0	0	0	0	580	
12	0	0	0	0	580	
13	0	0	0	0	580	
14	0	0	0	0	580	
15	0	0	0	0	580	
0	0	0	0	0	579	
1	0	0	0	0	580	
2	0	0	0	0	579	
3	0	0	0	0	579	
4	0	0	0	0	579	
5	0	0	0	0	579	
6	0	0	0	0	579	
7	0	0	0	0	579	
8	0	0	0	0	579	
9	0	0	0	0	579	
10	0	0	0	0	579	
11	0	0	0	0	579	
12	0	0	0	0	579	
13	0	0	0	0	579	
14	0	0	0	0	579	
15	0	0	0	0	579	
0	0	0	0	0	579	
1	0	0	0	0	579	
2	0	0	0	0	578	
3	0	0	0	0	578	
4	0	0	0	0	578	
5	0	0	0	0	578	
6	0	0	0	0	578	
7	0	0	0	0	578	
8	0	0	0	0	578	
9	0	0	0	0	578	
10	0	0	0	0	578	
11	0	0	0	0	578	
12	0	0	0	0	578	
13	0	0	0	0	578	
14	0	0	0	0	577	
15	0	0	0	0	577	
0	0	0	0	0	577	
1	0	0	0	0	577	
2	0	0	0	0	577	
3	0	0	0	0	577	
4	0	0	0	0	577	
5	0	0	0	0	577	
6	0	0	0	0	577	
7	0	0	0	0	577	
8	0	0	0	0	577	
9	0	0	0	0	577	
10	0	0	0	0	577	
11	0	0	0	0	577	
12	0	0	0	0	577	
13	0	0	0	0	577	
14	0	0	0	0	576	
15	0	0	0	0	576	
0	0	0	0	0	576	
1	0	0	0	0	576	
2	0	0	0	0	576	
3	0	0	0	0	576	
4	0	0	0	0	576	
5	0	0	0	0	576	
6	0	0	0	0	576	
7	0	0	0	0	576	
8	0	0	0	0	576	
9	0	0	0	0	576	
10	0	0	0	0	575	
11	0	0	0	0	575	
12	0	0	0	0	575	
13	0	0	0	0	575	
14	0	0	0	0	575	
15	0	0	0	0	575	
0	0	0	0	0	575	
1	0	0	0	0	575	
2	0	0	0	0	575	
3	0	0	0	0	575	
4	0	0	0	0	575	
5	0	0	0	0	575	
6	0	0	0	0	575	
7	0	0	0	0	575	
8	0	0	0	0	575	
9	0	0	0	0	575	
10	0	0	0	0	575	
11	0	0	0	0	575	
12	0	0	0	0	575	
13	0	0	0	0	575	
14	0	0	0	0	575	
15	0	0	0	0	575	
0	0	0	0	0	575	
1	0	0	0	0	574	
2	0	0	0	0	575	
3	0	0	0	0	574	
4	0	0	0	0	574	
5	0	0	0	0	574	
6	0	0	0	0	574	
7	0	0	0	0	574	
8	0	0	0	0	574	
9	0	0	0	0	574	
10	0	0	0	0	574	
11	0	0	0	0	574	
12	0	0	0	0	574	
13	0	0	0	0	574	
14	0	0	0	0	574	
15	0	0	0	0	574	
0	0	0	0	0	574	
1	0	0	0	0	574	
2	0	0	0	0	573	
3	0	0	0	0	574	
4	0	0	0	0	573	
5	0	0	0	0	574	
6	0	0	0	0	573	
7	0	0	0	0	573	
8	0	0	0	0	573	
9	0	0	0	0	573	
10	0	0	0	0	573	
11	0	0	0	0	573	
12	0	0	0	0	573	
13	0	0	0	0	573	
14	0	0	0	0	573	
15	0	0	0	0	573	
0	0	0	0	0	573	
1	0	0	0	0	573	
2	0	0	0	0	573	
3	0	0	0	0	573	
4	0	0	0	0	573	
5	0	0	0	0	573	
6	0	0	0	0	573	
7	0	0	0	0	573	
8	0	0	0	0	573	
9	0	0	0	0	573	
10	0	0	0	0	573	
11	0	0	0	0	573	
12	0	0	0	0	573	
13	0	0	0	0	573	
14	0	0	0	0	573	
15	0	0	0	0	573	
0	0	0	0	0	573	
1	0	0	0	0	573	
2	0	0	0	0	573	
3	0	0	0	0	573	
4	0	0	0	0	573	
5	0	0	0	0	573	
6	0	0	0	0	573	
7	0	0	0	0	573	
8	0	0	0	0	573	
9	0	0	0	0	573	
10	0	0	0	0	573	
11	0	0	0	0	573	
12	0	0	0	0	573	
13	0	0	0	0	573	
14	0	0	0	0	573	
15	0	0	0	0	573	
0	0	0	0	0	573	
1	0	0	0	0	573	
2	0	0	0	0	573	
3	0	0	0	0	573	
4	0	0	0	0	573	
5	0	0	0	0	573	
6	0	0	0	0	573	
7	0	0	0	0	573	
8	0	0	0	0	573	
9	0	0	0	0	573	
10	0	0	0	0	573	
11	0	0	0	0	573	
12	0	0	0	0	573	
13	0	0	0	0	574	
14	0	0	0	0	573	
15	0	0	0	0	573	
0	0	0	0	0	573	
1	0	0	0	0	573	
2	0	0	0	0	573	
3	0	0	0	0	573	
4	0	0	0	0	573	
5	0	0	0	0	573	
6	0	0	0	0	573	
7	0	0	0	0	573	
8	0	0	0	0	573	
9	0	0	0	0	573	
10	0	0	0	0	573	
11	0	0	0	0	573	
12	0	0	0	0	573	
13	0	0	0	0	573	
14	0	0	0	0	573	
15	0	0	0	0	573	
0	0	0	0	0	573	
1	0	0	0	0	574	
2	0	0	0	0	573	
3	0	0	0	0	573	
4	0	0	0	0	573	
5	0	0	0	0	574	
6	0	0	0	0	573	
7	0	0	0	0	573	
8	0	0	0	0	573	
9	0	0	0	0	574	
10	0	0	0	0	573	
11	0	0	0	0	574	
12	0	0	0	0	573	
13	0	0	0	0	574	
14	0	0	0	0	573	
15	0	0	0	0	573	
0	0	0	0	0	573	
1	0	0	0	0	573	
2	0	0	0	0	573	
3	0	0	0	0	573	
4	0	0	0	0	573	
5	0	0	0	0	573	
6	0	0	0	0	573	
7	0	0	0	0	573	
8	0	0	0	0	573	
9	0	0	0	0	573	
10	0	0	0	0	573	
11	0	0	0	0	573	
12	0	0	0	0	573	
13	0	0	0	0	573	
14	0	0	0	0	573	
15	0	0	0	0	573	
0	0	0	0	0	573	
1	0	0	0	0	573	
2	0	0	0	0	573	
3	0	0	0	0	573	
4	0	0	0	0	573	
5	0	0	0	0	573	
6	0	0	0	0	573	
7	0	0	0	0	573	
8	0	0	0	0	573	
9	0	0	0	0	573	
10	0	0	0	0	573	
11	0	0	0	0	573	
12	0	0	0	0	573	
13	0	0	0	0	573	
14	0	0	0	0	572	
15	0	0	0	0	573	
0	0	0	0	0	573	
1	0	0	0	0	573	
2	0	0	0	0	573	
3	0	0	0	0	572	
4	0	0	0	0	572	
5	0	0	0	0	572	
6	0	0	0	0	572	
7	0	0	0	0	572	
8	0	0	0	0	572	
9	0	0	0	0	572	
10	0	0	0	0	572	
11	0	0	0	0	572	
12	0	0	0	0	572	
13	0	0	0	0	572	
14	0	0	0	0	572	
15	0	0	0	0	572	
0	0	0	0	0	572	
1	0	0	0	0	572	
2	0	0	0	0	572	
3	0	0	0	0	572	
4	0	0	0	0	572	
5	0	0	0	0	572	
6	0	0	0	0	572	
7	0	0	0	0	572	
8	0	0	0	0	572	
9	0	0	0	0	572	
10	0	0	0	0	572	
11	0	0	0	0	572	
12	0	0	0	0	572	
13	0	0	0	0	572	
14	0	0	0	0	572	
15	0	0	0	0	572	
0	0	0	0	0	572	
1	0	0	0	0	572	
2	0	0	0	0	572	
3	0	0	0	0	572	
4	0	0	0	0	572	
5	0	0	0	0	572	
6	0	0	0	0	572	
7	0	0	0	0	572	
8	0	0	0	0	571	
9	0	0	0	0	571	
10	0	0	0	0	571	
11	0	0	0	0	572	
12	0	0	0	0	571	
13	0	0	0	0	572	
14	0	0	0	0	571	
15	0	0	0	0	571	
0	0	0	0	0	571	
1	0	0	0	0	571	
2	0	0	0	0	571	
3	0	0	0	0	571	
4	0	0	0	0	571	
5	0	0	0	0	571	
6	0	0	0	0	571	
7	0	0	0	0	571	
8	0	0	0	0	571	
9	0	0	0	0	571	
10	0	0	0	0	571	
11	0	0	0	0	571	
12	0	0	0	0	571	
13	0	0	0	0	571	
14	0	0	0	0	571	
15	0	0	0	0	571	
0	0	0	0	0	571	
1	0	0	0	0	571	
2	0	0	0	0	571	
3	0	0	0	0	571	
4	0	0	0	0	571	
5	0	0	0	0	571	
6	0	0	0	0	571	
7	0	0	0	0	571	
8	0	0	0	0	571	
9	0	0	0	0	571	
10	0	0	0	0	570	
11	0	0	0	0	571	
12	0	0	0	0	570	
13	0	0	0	0	571	
14	0	0	0	0	570	
15	0	0	0	0	570	
0	0	0	0	0	570	
1	0	0	0	0	571	
2	0	0	0	0	570	
3	0	0	0	0	570	
4	0	0	0	0	570	
5	0	0	0	0	570	
6	0	0	0	0	570	
7	0	0	0	0	570	
8	0	0	0	0	570	
9	0	0	0	0	570	
10	0	0	0	0	570	
11	0	0	0	0	570	
12	0	0	0	0	570	
13	0	0	0	0	570	
14	0	0	0	0	570	
15	0	0	0	0	570	
0	0	0	0	0	570	
1	0	0	0	0	570	
2	0	0	0	0	570	
3	0	0	0	0	570	
4	0	0	0	0	570	
5	0	0	0	0	570	
6	0	0	0	0	570	
7	0	0	0	0	570	
8	0	0	0	0	569	
9	0	0	0	0	570	
10	0	0	0	0	569	
11	0	0	0	0	569	
12	0	0	0	0	569	
13	0	0	0	0	570	
14	0	0	0	0	569	
15	0	0	0	0	569	
0	0	0	0	0	569	
1	0	0	0	0	570	
2	0	0	0	0	569	
3	0	0	0	0	569	
4	0	0	0	0	569	
5	0	0	0	0	569	
6	0	0	0	0	569	
7	0	0	0	0	569	
8	0	0	0	0	569	
9	0	0	0	0	569	
10	0	0	0	0	569	
11	0	0	0	0	569	
12	0	0	0	0	569	
13	0	0	0	0	569	
14	0	0	0	0	569	
15	0	0	0	0	569	
0	0	0	0	0	569	
1	0	0	0	0	569	
2	0	0	0	0	569	
3	0	0	0	0	569	
4	0	0	0	0	569	
5	0	0	0	0	569	
6	0	0	0	0	569	
7	0	0	0	0	569	
8	0	0	0	0	569	
9	0	0	0	0	569	
10	0	0	0	0	569	
11	0	0	0	0	569	
12	0	0	0	0	569	
13	0	0	0	0	569	
14	0	0	0	0	569	
15	0	0	0	0	569	
0	0	0	0	0	569	
1	0	0	0	0	569	
2	0	0	0	0	569	
3	0	0	0	0	568	
4	0	0	0	0	568	
5	0	0	0	0	569	
6	0	0	0	0	568	
7	0	0	0	0	568	
8	0	0	0	0	568	
9	0	0	0	0	568	
10	0	0	0	0	568	
11	0	0	0	0	568	
12	0	0	0	0	568	
13	0	0	0	0	568	
14	0	0	0	0	568	
15	0	0	0	0	568	
0	0	0	0	0	568	
1	0	0	0	0	568	
2	0	0	0	0	568	
3	0	0	0	0	568	
4	0	0	0	0	568	
5	0	0	0	0	568	
6	0	0	0	0	568	
7	0	0	0	0	568	
8	0	0	0	0	568	
9	0	0	0	0	568	
10	0	0	0	0	567	
11	0	0	0	0	568	
12	0	0	0	0	568	
13	0	0	0	0	568	
14	0	0	0	0	567	
15	0	0	0	0	567	
0	0	0	0	0	567	
1	0	0	0	0	567	
2	0	0	0	0	567	
3	0	0	0	0	567	
4	0	0	0	0	567	
5	0	0	0	0	567	
6	0	0	0	0	567	
7	0	0	0	0	567	
8	0	0	0	0	567	
9	0	0	0	0	567	
10	0	0	0	0	567	
11	0	0	0	0	567	
12	0	0	0	0	567	
13	0	0	0	0	567	
14	0	0	0	0	567	
15	0	0	0	0	567	
0	0	0	0	0	566	
1	0	0	0	0	567	
2	0	0	0	0	566	
3	0	0	0	0	566	
4	0	0	0	0	566	
5	0	0	0	0	566	
6	0	0	0	0	566	
7	0	0	0	0	566	
8	0	0	0	0	566	
9	0	0	0	0	566	
10	0	0	0	0	566	
11	0	0	0	0	566	
12	0	0	0	0	566	
13	0	0	0	0	566	
14	0	0	0	0	566	
15	0	0	0	0	566	
0	0	0	0	0	565	
1	0	0	0	0	566	
2	0	0	0	0	565	
3	0	0	0	0	565	
4	0	0	0	0	565	
5	0	0	0	0	565	
6	0	0	0	0	565	
7	0	0	0	0	565	
8	0	0	0	0	565	
9	0	0	0	0	565	
10	0	0	0	0	565	
11	0	0	0	0	565	
12	0	0	0	0	565	
13	0	0	0	0	565	
14	0	0	0	0	565	
15	0	0	0	0	565	
0	0	0	0	0	564	
1	0	0	0	0	565	
2	0	0	0	0	564	
3	0	0	0	0	564	
4	0	0	0	0	564	
5	0	0	0	0	564	
6	0	0	0	0	564	
7	0	0	0	0	564	
8	0	0	0	0	564	
9	0	0	0	0	564	
10	0	0	0	0	564	
11	0	0	0	0	564	
12	0	0	0	0	564	
13	0	0	0	0	564	
14	0	0	0	0	563	
15	0	0	0	0	564	
0	0	0	0	0	563	
1	0	0	0	0	564	
2	0	0	0	0	563	
3	0	0	0	0	563	
4	0	0	0	0	563	
5	0	0	0	0	563	
6	0	0	0	0	563	
7	0	0	0	0	563	
8	0	0	0	0	563	
9	0	0	0	0	563	
10	0	0	0	0	563	
11	0	0	0	0	563	
12	0	0	0	0	563	
13	0	0	0	0	563	
14	0	0	0	0	563	
15	0	0	0	0	563	
0	0	0	0	0	563	
1	0	0	0	0	563	
2	0	0	0	0	562	
3	0	0	0	0	563	
4	0	0	0	0	563	
5	0	0	0	0	562	
6	0	0	0	0	562	
7	0	0	0	0	562	
8	0	0	0	0	562	
9	0	0	0	0	562	
10	0	0	0	0	562	
11	0	0	0	0	562	
12	0	0	0	0	562	
13	0	0	0	0	562	
14	0	0	0	0	562	
15	0	0	0	0	562	
0	0	0	0	0	561	
1	0	0	0	0	562	
2	0	0	0	0	561	
3	0	0	0	0	561	
4	0	0	0	0	561	
5	0	0	0	0	561	
6	0	0	0	0	561	
7	0	0	0	0	561	
8	0	0	0	0	561	
9	0	0	0	0	561	
10	0	0	0	0	561	
11	0	0	0	0	561	
12	0	0	0	0	561	
13	0	0	0	0	561	
14	0	0	0	0	561	
15	0	0	0	0	561	
0	0	0	0	0	561	
1	0	0	0	0	561	
2	0	0	0	0	561	
3	0	0	0	0	561	
4	0	0	0	0	560	
5	0	0	0	0	561	
6	0	0	0	0	560	
7	0	0	0	0	560	
8	0	0	0	0	560	
9	0	0	0	0	561	
10	0	0	0	0	560	
11	0	0	0	0	560	
12	0	0	0	0	560	
13	0	0	0	0	560	
14	0	0	0	0	560	
15	0	0	0	0	560	
0	0	0	0	0	560	
1	0	0	0	0	560	
2	0	0	0	0	560	
3	0	0	0	0	560	
