# OpenSignals Text File Format. Version 1
# {"0C:43:14:24:80:23": {"position": 0, "device": "bitalino_rev", "device name": "0C:43:14:24:80:23", "device connection": "0C:43:14:24:80:23", "sampling rate": 100, "resolution": [4, 1, 1, 1, 1, 10], "firmware version": 1282, "comments": "", "keywords": "", "mode": 0, "sync interval": 2, "date": "2024-2-29", "time": "11:3:2.573", "channels": [1], "sensor": ["EMGBITREV"], "label": ["A1"], "column": ["nSeq", "I1", "I2", "O1", "O2", "A1"], "special": [{}], "digital IO": [0, 0, 1, 1]}}
# EndOfHeader
0	0	0	0	0	427	
1	0	0	0	0	684	
2	0	0	0	0	425	
3	0	0	0	0	681	
4	0	0	0	0	423	
5	0	0	0	0	680	
6	0	0	0	0	413	
7	0	0	0	0	682	
8	0	0	0	0	423	
9	0	0	0	0	676	
10	0	0	0	0	427	
11	0	0	0	0	676	
12	0	0	0	0	424	
13	0	0	0	0	678	
14	0	0	0	0	420	
15	0	0	0	0	675	
0	0	0	0	0	423	
1	0	0	0	0	678	
2	0	0	0	0	422	
3	0	0	0	0	678	
4	0	0	0	0	422	
5	0	0	0	0	675	
6	0	0	0	0	421	
7	0	0	0	0	676	
8	0	0	0	0	425	
9	0	0	0	0	678	
10	0	0	0	0	424	
11	0	0	0	0	676	
12	0	0	0	0	414	
13	0	0	0	0	676	
14	0	0	0	0	419	
15	0	0	0	0	676	
0	0	0	0	0	418	
1	0	0	0	0	668	
2	0	0	0	0	420	
3	0	0	0	0	675	
4	0	0	0	0	417	
5	0	0	0	0	676	
6	0	0	0	0	414	
7	0	0	0	0	676	
8	0	0	0	0	416	
9	0	0	0	0	671	
10	0	0	0	0	402	
11	0	0	0	0	675	
12	0	0	0	0	418	
13	0	0	0	0	676	
14	0	0	0	0	412	
15	0	0	0	0	668	
0	0	0	0	0	416	
1	0	0	0	0	674	
2	0	0	0	0	415	
3	0	0	0	0	676	
4	0	0	0	0	416	
5	0	0	0	0	670	
6	0	0	0	0	414	
7	0	0	0	0	673	
8	0	0	0	0	414	
9	0	0	0	0	674	
10	0	0	0	0	412	
11	0	0	0	0	674	
12	0	0	0	0	399	
13	0	0	0	0	675	
14	0	0	0	0	411	
15	0	0	0	0	673	
0	0	0	0	0	412	
1	0	0	0	0	655	
2	0	0	0	0	411	
3	0	0	0	0	671	
4	0	0	0	0	412	
5	0	0	0	0	670	
6	0	0	0	0	414	
7	0	0	0	0	664	
8	0	0	0	0	412	
9	0	0	0	0	667	
10	0	0	0	0	408	
11	0	0	0	0	669	
12	0	0	0	0	405	
13	0	0	0	0	671	
14	0	0	0	0	409	
15	0	0	0	0	673	
0	0	0	0	0	408	
1	0	0	0	0	675	
2	0	0	0	0	413	
3	0	0	0	0	669	
4	0	0	0	0	416	
5	0	0	0	0	664	
6	0	0	0	0	409	
7	0	0	0	0	665	
8	0	0	0	0	407	
9	0	0	0	0	665	
10	0	0	0	0	407	
11	0	0	0	0	675	
12	0	0	0	0	403	
13	0	0	0	0	680	
14	0	0	0	0	408	
15	0	0	0	0	671	
0	0	0	0	0	405	
1	0	0	0	0	667	
2	0	0	0	0	405	
3	0	0	0	0	667	
4	0	0	0	0	407	
5	0	0	0	0	663	
6	0	0	0	0	404	
7	0	0	0	0	664	
8	0	0	0	0	404	
9	0	0	0	0	663	
10	0	0	0	0	396	
11	0	0	0	0	664	
12	0	0	0	0	402	
13	0	0	0	0	664	
14	0	0	0	0	401	
15	0	0	0	0	657	
0	0	0	0	0	407	
1	0	0	0	0	663	
2	0	0	0	0	404	
3	0	0	0	0	648	
4	0	0	0	0	403	
5	0	0	0	0	659	
6	0	0	0	0	400	
7	0	0	0	0	664	
8	0	0	0	0	396	
9	0	0	0	0	668	
10	0	0	0	0	394	
11	0	0	0	0	663	
12	0	0	0	0	398	
13	0	0	0	0	657	
14	0	0	0	0	368	
15	0	0	0	0	654	
0	0	0	0	0	395	
1	0	0	0	0	659	
2	0	0	0	0	392	
3	0	0	0	0	660	
4	0	0	0	0	397	
5	0	0	0	0	659	
6	0	0	0	0	401	
7	0	0	0	0	661	
8	0	0	0	0	392	
9	0	0	0	0	659	
10	0	0	0	0	394	
11	0	0	0	0	652	
12	0	0	0	0	393	
13	0	0	0	0	657	
14	0	0	0	0	392	
15	0	0	0	0	661	
0	0	0	0	0	387	
1	0	0	0	0	654	
2	0	0	0	0	392	
3	0	0	0	0	657	
4	0	0	0	0	395	
5	0	0	0	0	648	
6	0	0	0	0	394	
7	0	0	0	0	650	
8	0	0	0	0	396	
9	0	0	0	0	650	
10	0	0	0	0	384	
11	0	0	0	0	657	
12	0	0	0	0	386	
13	0	0	0	0	656	
14	0	0	0	0	387	
15	0	0	0	0	643	
0	0	0	0	0	393	
1	0	0	0	0	650	
2	0	0	0	0	387	
3	0	0	0	0	653	
4	0	0	0	0	400	
5	0	0	0	0	659	
6	0	0	0	0	384	
7	0	0	0	0	664	
8	0	0	0	0	392	
9	0	0	0	0	657	
10	0	0	0	0	387	
11	0	0	0	0	663	
12	0	0	0	0	376	
13	0	0	0	0	648	
14	0	0	0	0	389	
15	0	0	0	0	644	
0	0	0	0	0	398	
1	0	0	0	0	660	
2	0	0	0	0	385	
3	0	0	0	0	642	
4	0	0	0	0	383	
5	0	0	0	0	637	
6	0	0	0	0	368	
7	0	0	0	0	661	
8	0	0	0	0	380	
9	0	0	0	0	652	
10	0	0	0	0	353	
11	0	0	0	0	655	
12	0	0	0	0	376	
13	0	0	0	0	666	
14	0	0	0	0	361	
15	0	0	0	0	661	
0	0	0	0	0	387	
1	0	0	0	0	643	
2	0	0	0	0	368	
3	0	0	0	0	636	
4	0	0	0	0	372	
5	0	0	0	0	647	
6	0	0	0	0	388	
7	0	0	0	0	634	
8	0	0	0	0	385	
9	0	0	0	0	651	
10	0	0	0	0	409	
11	0	0	0	0	643	
12	0	0	0	0	385	
13	0	0	0	0	651	
14	0	0	0	0	391	
15	0	0	0	0	641	
0	0	0	0	0	382	
1	0	0	0	0	649	
2	0	0	0	0	342	
3	0	0	0	0	658	
4	0	0	0	0	410	
5	0	0	0	0	631	
6	0	0	0	0	364	
7	0	0	0	0	635	
8	0	0	0	0	363	
9	0	0	0	0	645	
10	0	0	0	0	381	
11	0	0	0	0	638	
12	0	0	0	0	388	
13	0	0	0	0	659	
14	0	0	0	0	346	
15	0	0	0	0	638	
0	0	0	0	0	355	
1	0	0	0	0	630	
2	0	0	0	0	364	
3	0	0	0	0	628	
4	0	0	0	0	358	
5	0	0	0	0	656	
6	0	0	0	0	358	
7	0	0	0	0	617	
8	0	0	0	0	366	
9	0	0	0	0	628	
10	0	0	0	0	360	
11	0	0	0	0	624	
12	0	0	0	0	372	
13	0	0	0	0	637	
14	0	0	0	0	367	
15	0	0	0	0	632	
0	0	0	0	0	363	
1	0	0	0	0	623	
2	0	0	0	0	358	
3	0	0	0	0	629	
4	0	0	0	0	367	
5	0	0	0	0	617	
6	0	0	0	0	366	
7	0	0	0	0	624	
8	0	0	0	0	364	
9	0	0	0	0	628	
10	0	0	0	0	365	
11	0	0	0	0	623	
12	0	0	0	0	361	
13	0	0	0	0	615	
14	0	0	0	0	367	
15	0	0	0	0	621	
0	0	0	0	0	349	
1	0	0	0	0	623	
2	0	0	0	0	363	
3	0	0	0	0	612	
4	0	0	0	0	359	
5	0	0	0	0	616	
6	0	0	0	0	363	
7	0	0	0	0	617	
8	0	0	0	0	357	
9	0	0	0	0	624	
10	0	0	0	0	355	
11	0	0	0	0	622	
12	0	0	0	0	344	
13	0	0	0	0	620	
14	0	0	0	0	353	
15	0	0	0	0	619	
0	0	0	0	0	347	
1	0	0	0	0	617	
2	0	0	0	0	345	
3	0	0	0	0	615	
4	0	0	0	0	350	
5	0	0	0	0	613	
6	0	0	0	0	353	
7	0	0	0	0	616	
8	0	0	0	0	347	
9	0	0	0	0	612	
10	0	0	0	0	348	
11	0	0	0	0	610	
12	0	0	0	0	344	
13	0	0	0	0	615	
14	0	0	0	0	338	
15	0	0	0	0	615	
0	0	0	0	0	341	
1	0	0	0	0	612	
2	0	0	0	0	345	
3	0	0	0	0	605	
4	0	0	0	0	349	
5	0	0	0	0	604	
6	0	0	0	0	344	
7	0	0	0	0	604	
8	0	0	0	0	345	
9	0	0	0	0	611	
10	0	0	0	0	334	
11	0	0	0	0	611	
12	0	0	0	0	346	
13	0	0	0	0	608	
14	0	0	0	0	345	
15	0	0	0	0	610	
0	0	0	0	0	330	
1	0	0	0	0	605	
2	0	0	0	0	344	
3	0	0	0	0	605	
4	0	0	0	0	348	
5	0	0	0	0	602	
6	0	0	0	0	332	
7	0	0	0	0	600	
8	0	0	0	0	337	
9	0	0	0	0	586	
10	0	0	0	0	337	
11	0	0	0	0	604	
12	0	0	0	0	334	
13	0	0	0	0	595	
14	0	0	0	0	323	
15	0	0	0	0	599	
0	0	0	0	0	337	
1	0	0	0	0	600	
2	0	0	0	0	335	
3	0	0	0	0	594	
4	0	0	0	0	337	
5	0	0	0	0	590	
6	0	0	0	0	338	
7	0	0	0	0	595	
8	0	0	0	0	319	
9	0	0	0	0	591	
10	0	0	0	0	336	
11	0	0	0	0	590	
12	0	0	0	0	329	
13	0	0	0	0	586	
14	0	0	0	0	334	
15	0	0	0	0	587	
0	0	0	0	0	334	
1	0	0	0	0	591	
2	0	0	0	0	332	
3	0	0	0	0	589	
4	0	0	0	0	334	
5	0	0	0	0	582	
6	0	0	0	0	332	
7	0	0	0	0	590	
8	0	0	0	0	328	
9	0	0	0	0	582	
10	0	0	0	0	322	
11	0	0	0	0	583	
12	0	0	0	0	335	
13	0	0	0	0	575	
14	0	0	0	0	336	
15	0	0	0	0	580	
0	0	0	0	0	317	
1	0	0	0	0	585	
2	0	0	0	0	322	
3	0	0	0	0	587	
4	0	0	0	0	311	
5	0	0	0	0	592	
6	0	0	0	0	321	
7	0	0	0	0	586	
8	0	0	0	0	327	
9	0	0	0	0	575	
10	0	0	0	0	320	
11	0	0	0	0	575	
12	0	0	0	0	335	
13	0	0	0	0	554	
14	0	0	0	0	314	
15	0	0	0	0	583	
0	0	0	0	0	332	
1	0	0	0	0	616	
2	0	0	0	0	289	
3	0	0	0	0	583	
4	0	0	0	0	309	
5	0	0	0	0	586	
6	0	0	0	0	301	
7	0	0	0	0	577	
8	0	0	0	0	317	
9	0	0	0	0	579	
10	0	0	0	0	316	
11	0	0	0	0	605	
12	0	0	0	0	306	
13	0	0	0	0	562	
14	0	0	0	0	307	
15	0	0	0	0	567	
0	0	0	0	0	320	
1	0	0	0	0	564	
2	0	0	0	0	317	
3	0	0	0	0	561	
4	0	0	0	0	323	
5	0	0	0	0	568	
6	0	0	0	0	322	
7	0	0	0	0	537	
8	0	0	0	0	316	
9	0	0	0	0	550	
10	0	0	0	0	312	
11	0	0	0	0	566	
12	0	0	0	0	339	
13	0	0	0	0	560	
14	0	0	0	0	308	
15	0	0	0	0	543	
0	0	0	0	0	323	
1	0	0	0	0	553	
2	0	0	0	0	318	
3	0	0	0	0	569	
4	0	0	0	0	312	
5	0	0	0	0	558	
6	0	0	0	0	318	
7	0	0	0	0	552	
8	0	0	0	0	322	
9	0	0	0	0	538	
10	0	0	0	0	316	
11	0	0	0	0	569	
12	0	0	0	0	303	
13	0	0	0	0	547	
14	0	0	0	0	312	
15	0	0	0	0	555	
0	0	0	0	0	321	
1	0	0	0	0	551	
2	0	0	0	0	308	
3	0	0	0	0	564	
4	0	0	0	0	300	
5	0	0	0	0	550	
6	0	0	0	0	327	
7	0	0	0	0	546	
8	0	0	0	0	309	
9	0	0	0	0	575	
10	0	0	0	0	311	
11	0	0	0	0	548	
12	0	0	0	0	310	
13	0	0	0	0	532	
14	0	0	0	0	305	
15	0	0	0	0	552	
0	0	0	0	0	282	
1	0	0	0	0	541	
2	0	0	0	0	332	
3	0	0	0	0	556	
4	0	0	0	0	316	
5	0	0	0	0	564	
6	0	0	0	0	318	
7	0	0	0	0	529	
8	0	0	0	0	334	
9	0	0	0	0	514	
10	0	0	0	0	330	
11	0	0	0	0	556	
12	0	0	0	0	328	
13	0	0	0	0	542	
14	0	0	0	0	312	
15	0	0	0	0	508	
0	0	0	0	0	319	
1	0	0	0	0	555	
2	0	0	0	0	316	
3	0	0	0	0	541	
4	0	0	0	0	340	
5	0	0	0	0	523	
6	0	0	0	0	330	
7	0	0	0	0	544	
8	0	0	0	0	322	
9	0	0	0	0	551	
10	0	0	0	0	334	
11	0	0	0	0	532	
12	0	0	0	0	319	
13	0	0	0	0	542	
14	0	0	0	0	342	
15	0	0	0	0	526	
0	0	0	0	0	329	
1	0	0	0	0	548	
2	0	0	0	0	320	
3	0	0	0	0	539	
4	0	0	0	0	325	
5	0	0	0	0	550	
6	0	0	0	0	322	
7	0	0	0	0	543	
8	0	0	0	0	332	
9	0	0	0	0	539	
10	0	0	0	0	322	
11	0	0	0	0	543	
12	0	0	0	0	321	
13	0	0	0	0	538	
14	0	0	0	0	333	
15	0	0	0	0	538	
0	0	0	0	0	332	
1	0	0	0	0	539	
2	0	0	0	0	326	
3	0	0	0	0	540	
4	0	0	0	0	329	
5	0	0	0	0	541	
6	0	0	0	0	333	
7	0	0	0	0	538	
8	0	0	0	0	338	
9	0	0	0	0	533	
10	0	0	0	0	326	
11	0	0	0	0	535	
12	0	0	0	0	331	
13	0	0	0	0	545	
14	0	0	0	0	337	
15	0	0	0	0	532	
0	0	0	0	0	329	
1	0	0	0	0	547	
2	0	0	0	0	328	
3	0	0	0	0	539	
4	0	0	0	0	340	
5	0	0	0	0	541	
6	0	0	0	0	342	
7	0	0	0	0	536	
8	0	0	0	0	338	
9	0	0	0	0	536	
10	0	0	0	0	331	
11	0	0	0	0	535	
12	0	0	0	0	349	
13	0	0	0	0	539	
14	0	0	0	0	336	
15	0	0	0	0	536	
0	0	0	0	0	336	
1	0	0	0	0	535	
2	0	0	0	0	338	
3	0	0	0	0	543	
4	0	0	0	0	339	
5	0	0	0	0	537	
6	0	0	0	0	342	
7	0	0	0	0	531	
8	0	0	0	0	348	
9	0	0	0	0	541	
10	0	0	0	0	349	
11	0	0	0	0	538	
12	0	0	0	0	344	
13	0	0	0	0	528	
14	0	0	0	0	350	
15	0	0	0	0	539	
0	0	0	0	0	342	
1	0	0	0	0	534	
2	0	0	0	0	345	
3	0	0	0	0	533	
4	0	0	0	0	348	
5	0	0	0	0	535	
6	0	0	0	0	347	
7	0	0	0	0	526	
8	0	0	0	0	354	
9	0	0	0	0	533	
10	0	0	0	0	350	
11	0	0	0	0	532	
12	0	0	0	0	356	
13	0	0	0	0	533	
14	0	0	0	0	351	
15	0	0	0	0	536	
0	0	0	0	0	352	
1	0	0	0	0	533	
2	0	0	0	0	352	
3	0	0	0	0	536	
4	0	0	0	0	354	
5	0	0	0	0	539	
6	0	0	0	0	359	
7	0	0	0	0	539	
8	0	0	0	0	358	
9	0	0	0	0	532	
10	0	0	0	0	355	
11	0	0	0	0	534	
12	0	0	0	0	359	
13	0	0	0	0	531	
14	0	0	0	0	357	
15	0	0	0	0	536	
0	0	0	0	0	358	
1	0	0	0	0	537	
2	0	0	0	0	355	
3	0	0	0	0	523	
4	0	0	0	0	364	
5	0	0	0	0	533	
6	0	0	0	0	359	
7	0	0	0	0	531	
8	0	0	0	0	357	
9	0	0	0	0	527	
10	0	0	0	0	364	
11	0	0	0	0	535	
12	0	0	0	0	365	
13	0	0	0	0	527	
14	0	0	0	0	368	
15	0	0	0	0	537	
0	0	0	0	0	371	
1	0	0	0	0	524	
2	0	0	0	0	380	
3	0	0	0	0	505	
4	0	0	0	0	373	
5	0	0	0	0	516	
6	0	0	0	0	376	
7	0	0	0	0	488	
8	0	0	0	0	375	
9	0	0	0	0	535	
10	0	0	0	0	366	
11	0	0	0	0	530	
12	0	0	0	0	352	
13	0	0	0	0	542	
14	0	0	0	0	385	
15	0	0	0	0	507	
0	0	0	0	0	378	
1	0	0	0	0	520	
2	0	0	0	0	356	
3	0	0	0	0	485	
4	0	0	0	0	391	
5	0	0	0	0	535	
6	0	0	0	0	368	
7	0	0	0	0	541	
8	0	0	0	0	366	
9	0	0	0	0	545	
10	0	0	0	0	390	
11	0	0	0	0	545	
12	0	0	0	0	382	
13	0	0	0	0	504	
14	0	0	0	0	392	
15	0	0	0	0	513	
0	0	0	0	0	388	
1	0	0	0	0	522	
2	0	0	0	0	387	
3	0	0	0	0	546	
4	0	0	0	0	339	
5	0	0	0	0	544	
6	0	0	0	0	426	
7	0	0	0	0	515	
8	0	0	0	0	391	
9	0	0	0	0	545	
10	0	0	0	0	377	
11	0	0	0	0	514	
12	0	0	0	0	399	
13	0	0	0	0	543	
14	0	0	0	0	385	
15	0	0	0	0	533	
0	0	0	0	0	366	
1	0	0	0	0	539	
2	0	0	0	0	372	
3	0	0	0	0	522	
4	0	0	0	0	381	
5	0	0	0	0	520	
6	0	0	0	0	376	
7	0	0	0	0	527	
8	0	0	0	0	365	
9	0	0	0	0	504	
10	0	0	0	0	377	
11	0	0	0	0	551	
12	0	0	0	0	355	
13	0	0	0	0	527	
14	0	0	0	0	391	
15	0	0	0	0	533	
0	0	0	0	0	391	
1	0	0	0	0	535	
2	0	0	0	0	380	
3	0	0	0	0	525	
4	0	0	0	0	373	
5	0	0	0	0	539	
6	0	0	0	0	401	
7	0	0	0	0	530	
8	0	0	0	0	407	
9	0	0	0	0	505	
10	0	0	0	0	386	
11	0	0	0	0	516	
12	0	0	0	0	392	
13	0	0	0	0	508	
14	0	0	0	0	413	
15	0	0	0	0	519	
0	0	0	0	0	399	
1	0	0	0	0	531	
2	0	0	0	0	375	
3	0	0	0	0	521	
4	0	0	0	0	397	
5	0	0	0	0	517	
6	0	0	0	0	406	
7	0	0	0	0	523	
8	0	0	0	0	393	
9	0	0	0	0	529	
10	0	0	0	0	395	
11	0	0	0	0	529	
12	0	0	0	0	394	
13	0	0	0	0	534	
14	0	0	0	0	399	
15	0	0	0	0	531	
0	0	0	0	0	399	
1	0	0	0	0	526	
2	0	0	0	0	400	
3	0	0	0	0	511	
4	0	0	0	0	408	
5	0	0	0	0	529	
6	0	0	0	0	408	
7	0	0	0	0	527	
8	0	0	0	0	410	
9	0	0	0	0	522	
10	0	0	0	0	416	
11	0	0	0	0	519	
12	0	0	0	0	408	
13	0	0	0	0	524	
14	0	0	0	0	409	
15	0	0	0	0	517	
0	0	0	0	0	409	
1	0	0	0	0	534	
2	0	0	0	0	400	
3	0	0	0	0	534	
4	0	0	0	0	410	
5	0	0	0	0	517	
6	0	0	0	0	411	
7	0	0	0	0	529	
8	0	0	0	0	425	
9	0	0	0	0	524	
10	0	0	0	0	420	
11	0	0	0	0	521	
12	0	0	0	0	418	
13	0	0	0	0	511	
14	0	0	0	0	425	
15	0	0	0	0	534	
0	0	0	0	0	425	
1	0	0	0	0	527	
2	0	0	0	0	427	
3	0	0	0	0	525	
4	0	0	0	0	428	
5	0	0	0	0	524	
6	0	0	0	0	430	
7	0	0	0	0	519	
8	0	0	0	0	434	
9	0	0	0	0	528	
10	0	0	0	0	425	
11	0	0	0	0	518	
12	0	0	0	0	415	
13	0	0	0	0	525	
14	0	0	0	0	434	
15	0	0	0	0	520	
0	0	0	0	0	423	
1	0	0	0	0	532	
2	0	0	0	0	433	
3	0	0	0	0	521	
4	0	0	0	0	435	
5	0	0	0	0	523	
6	0	0	0	0	439	
7	0	0	0	0	528	
8	0	0	0	0	437	
9	0	0	0	0	521	
10	0	0	0	0	440	
11	0	0	0	0	510	
12	0	0	0	0	441	
13	0	0	0	0	527	
14	0	0	0	0	433	
15	0	0	0	0	525	
0	0	0	0	0	441	
1	0	0	0	0	522	
2	0	0	0	0	437	
3	0	0	0	0	523	
4	0	0	0	0	442	
5	0	0	0	0	526	
6	0	0	0	0	435	
7	0	0	0	0	525	
8	0	0	0	0	441	
9	0	0	0	0	523	
10	0	0	0	0	453	
11	0	0	0	0	523	
12	0	0	0	0	451	
13	0	0	0	0	516	
14	0	0	0	0	440	
15	0	0	0	0	523	
0	0	0	0	0	449	
1	0	0	0	0	520	
2	0	0	0	0	451	
3	0	0	0	0	517	
4	0	0	0	0	449	
5	0	0	0	0	528	
6	0	0	0	0	459	
7	0	0	0	0	519	
8	0	0	0	0	455	
9	0	0	0	0	520	
10	0	0	0	0	454	
11	0	0	0	0	521	
12	0	0	0	0	452	
13	0	0	0	0	525	
14	0	0	0	0	450	
15	0	0	0	0	525	
0	0	0	0	0	447	
1	0	0	0	0	523	
2	0	0	0	0	464	
3	0	0	0	0	529	
4	0	0	0	0	460	
5	0	0	0	0	517	
6	0	0	0	0	481	
7	0	0	0	0	499	
8	0	0	0	0	454	
9	0	0	0	0	499	
10	0	0	0	0	455	
11	0	0	0	0	519	
12	0	0	0	0	467	
13	0	0	0	0	508	
14	0	0	0	0	466	
15	0	0	0	0	524	
0	0	0	0	0	492	
1	0	0	0	0	509	
2	0	0	0	0	465	
3	0	0	0	0	528	
4	0	0	0	0	467	
5	0	0	0	0	511	
6	0	0	0	0	470	
7	0	0	0	0	515	
8	0	0	0	0	486	
9	0	0	0	0	514	
10	0	0	0	0	478	
11	0	0	0	0	512	
12	0	0	0	0	462	
13	0	0	0	0	526	
14	0	0	0	0	465	
15	0	0	0	0	507	
0	0	0	0	0	453	
1	0	0	0	0	527	
2	0	0	0	0	446	
3	0	0	0	0	508	
4	0	0	0	0	487	
5	0	0	0	0	509	
6	0	0	0	0	479	
7	0	0	0	0	521	
8	0	0	0	0	478	
9	0	0	0	0	512	
10	0	0	0	0	485	
11	0	0	0	0	527	
12	0	0	0	0	470	
13	0	0	0	0	508	
14	0	0	0	0	491	
15	0	0	0	0	500	
0	0	0	0	0	487	
1	0	0	0	0	521	
2	0	0	0	0	479	
3	0	0	0	0	511	
4	0	0	0	0	469	
5	0	0	0	0	517	
6	0	0	0	0	500	
7	0	0	0	0	516	
8	0	0	0	0	503	
9	0	0	0	0	500	
10	0	0	0	0	481	
11	0	0	0	0	525	
12	0	0	0	0	487	
13	0	0	0	0	502	
14	0	0	0	0	489	
15	0	0	0	0	532	
0	0	0	0	0	496	
1	0	0	0	0	546	
2	0	0	0	0	476	
3	0	0	0	0	526	
4	0	0	0	0	482	
5	0	0	0	0	513	
6	0	0	0	0	503	
7	0	0	0	0	502	
8	0	0	0	0	519	
9	0	0	0	0	517	
10	0	0	0	0	504	
11	0	0	0	0	501	
12	0	0	0	0	510	
13	0	0	0	0	504	
14	0	0	0	0	499	
15	0	0	0	0	510	
0	0	0	0	0	510	
1	0	0	0	0	499	
2	0	0	0	0	506	
3	0	0	0	0	507	
4	0	0	0	0	507	
5	0	0	0	0	510	
6	0	0	0	0	501	
7	0	0	0	0	513	
8	0	0	0	0	507	
9	0	0	0	0	512	
10	0	0	0	0	502	
11	0	0	0	0	508	
12	0	0	0	0	513	
13	0	0	0	0	511	
14	0	0	0	0	515	
15	0	0	0	0	521	
0	0	0	0	0	512	
1	0	0	0	0	506	
2	0	0	0	0	524	
3	0	0	0	0	510	
4	0	0	0	0	515	
5	0	0	0	0	510	
6	0	0	0	0	517	
7	0	0	0	0	507	
8	0	0	0	0	519	
9	0	0	0	0	504	
10	0	0	0	0	524	
11	0	0	0	0	509	
12	0	0	0	0	507	
13	0	0	0	0	510	
14	0	0	0	0	527	
15	0	0	0	0	506	
0	0	0	0	0	530	
1	0	0	0	0	500	
2	0	0	0	0	524	
3	0	0	0	0	508	
4	0	0	0	0	527	
5	0	0	0	0	505	
6	0	0	0	0	526	
7	0	0	0	0	502	
8	0	0	0	0	536	
9	0	0	0	0	500	
10	0	0	0	0	524	
11	0	0	0	0	502	
12	0	0	0	0	532	
13	0	0	0	0	498	
14	0	0	0	0	530	
15	0	0	0	0	504	
0	0	0	0	0	532	
1	0	0	0	0	507	
2	0	0	0	0	527	
3	0	0	0	0	512	
4	0	0	0	0	534	
5	0	0	0	0	507	
6	0	0	0	0	534	
7	0	0	0	0	495	
8	0	0	0	0	543	
9	0	0	0	0	504	
10	0	0	0	0	512	
11	0	0	0	0	510	
12	0	0	0	0	540	
13	0	0	0	0	497	
14	0	0	0	0	543	
15	0	0	0	0	496	
0	0	0	0	0	531	
1	0	0	0	0	501	
2	0	0	0	0	528	
3	0	0	0	0	499	
4	0	0	0	0	540	
5	0	0	0	0	514	
6	0	0	0	0	546	
7	0	0	0	0	504	
8	0	0	0	0	546	
9	0	0	0	0	511	
10	0	0	0	0	547	
11	0	0	0	0	494	
12	0	0	0	0	543	
13	0	0	0	0	501	
14	0	0	0	0	543	
15	0	0	0	0	492	
0	0	0	0	0	553	
1	0	0	0	0	500	
2	0	0	0	0	547	
3	0	0	0	0	506	
4	0	0	0	0	545	
5	0	0	0	0	503	
6	0	0	0	0	546	
7	0	0	0	0	505	
8	0	0	0	0	545	
9	0	0	0	0	499	
10	0	0	0	0	552	
11	0	0	0	0	501	
12	0	0	0	0	550	
13	0	0	0	0	505	
14	0	0	0	0	552	
15	0	0	0	0	504	
0	0	0	0	0	545	
1	0	0	0	0	500	
2	0	0	0	0	552	
3	0	0	0	0	504	
4	0	0	0	0	548	
5	0	0	0	0	502	
6	0	0	0	0	555	
7	0	0	0	0	503	
8	0	0	0	0	556	
9	0	0	0	0	503	
10	0	0	0	0	558	
11	0	0	0	0	499	
12	0	0	0	0	561	
13	0	0	0	0	497	
14	0	0	0	0	562	
15	0	0	0	0	499	
0	0	0	0	0	563	
1	0	0	0	0	498	
2	0	0	0	0	560	
3	0	0	0	0	500	
4	0	0	0	0	554	
5	0	0	0	0	506	
6	0	0	0	0	564	
7	0	0	0	0	502	
8	0	0	0	0	566	
9	0	0	0	0	497	
10	0	0	0	0	565	
11	0	0	0	0	502	
12	0	0	0	0	561	
13	0	0	0	0	488	
14	0	0	0	0	555	
15	0	0	0	0	501	
0	0	0	0	0	563	
1	0	0	0	0	498	
2	0	0	0	0	566	
3	0	0	0	0	497	
4	0	0	0	0	568	
5	0	0	0	0	496	
6	0	0	0	0	571	
7	0	0	0	0	502	
8	0	0	0	0	567	
9	0	0	0	0	510	
10	0	0	0	0	578	
11	0	0	0	0	494	
12	0	0	0	0	575	
13	0	0	0	0	485	
14	0	0	0	0	581	
15	0	0	0	0	489	
0	0	0	0	0	577	
1	0	0	0	0	493	
2	0	0	0	0	600	
3	0	0	0	0	494	
4	0	0	0	0	566	
5	0	0	0	0	489	
6	0	0	0	0	577	
7	0	0	0	0	465	
8	0	0	0	0	556	
9	0	0	0	0	508	
10	0	0	0	0	583	
11	0	0	0	0	503	
12	0	0	0	0	570	
13	0	0	0	0	509	
14	0	0	0	0	591	
15	0	0	0	0	476	
0	0	0	0	0	579	
1	0	0	0	0	515	
2	0	0	0	0	597	
3	0	0	0	0	481	
4	0	0	0	0	571	
5	0	0	0	0	504	
6	0	0	0	0	572	
7	0	0	0	0	488	
8	0	0	0	0	580	
9	0	0	0	0	475	
10	0	0	0	0	570	
11	0	0	0	0	510	
12	0	0	0	0	558	
13	0	0	0	0	462	
14	0	0	0	0	572	
15	0	0	0	0	485	
0	0	0	0	0	601	
1	0	0	0	0	464	
2	0	0	0	0	600	
3	0	0	0	0	490	
4	0	0	0	0	565	
5	0	0	0	0	463	
6	0	0	0	0	611	
7	0	0	0	0	489	
8	0	0	0	0	610	
9	0	0	0	0	461	
10	0	0	0	0	558	
11	0	0	0	0	485	
12	0	0	0	0	600	
13	0	0	0	0	494	
14	0	0	0	0	617	
15	0	0	0	0	491	
0	0	0	0	0	622	
1	0	0	0	0	528	
2	0	0	0	0	590	
3	0	0	0	0	524	
4	0	0	0	0	563	
5	0	0	0	0	476	
6	0	0	0	0	586	
7	0	0	0	0	504	
8	0	0	0	0	583	
9	0	0	0	0	503	
10	0	0	0	0	622	
11	0	0	0	0	523	
12	0	0	0	0	583	
13	0	0	0	0	491	
14	0	0	0	0	582	
15	0	0	0	0	433	
0	0	0	0	0	607	
1	0	0	0	0	446	
2	0	0	0	0	599	
3	0	0	0	0	456	
4	0	0	0	0	636	
5	0	0	0	0	503	
6	0	0	0	0	605	
7	0	0	0	0	425	
8	0	0	0	0	595	
9	0	0	0	0	470	
10	0	0	0	0	617	
11	0	0	0	0	478	
12	0	0	0	0	591	
13	0	0	0	0	480	
14	0	0	0	0	599	
15	0	0	0	0	481	
0	0	0	0	0	609	
1	0	0	0	0	482	
2	0	0	0	0	615	
3	0	0	0	0	505	
4	0	0	0	0	616	
5	0	0	0	0	480	
6	0	0	0	0	609	
7	0	0	0	0	481	
8	0	0	0	0	611	
9	0	0	0	0	504	
10	0	0	0	0	613	
11	0	0	0	0	486	
12	0	0	0	0	611	
13	0	0	0	0	484	
14	0	0	0	0	609	
15	0	0	0	0	484	
0	0	0	0	0	616	
1	0	0	0	0	483	
2	0	0	0	0	618	
3	0	0	0	0	480	
4	0	0	0	0	615	
5	0	0	0	0	481	
6	0	0	0	0	616	
7	0	0	0	0	479	
8	0	0	0	0	624	
9	0	0	0	0	484	
10	0	0	0	0	615	
11	0	0	0	0	481	
12	0	0	0	0	616	
13	0	0	0	0	484	
14	0	0	0	0	619	
15	0	0	0	0	479	
0	0	0	0	0	622	
1	0	0	0	0	478	
2	0	0	0	0	620	
3	0	0	0	0	480	
4	0	0	0	0	621	
5	0	0	0	0	479	
6	0	0	0	0	621	
7	0	0	0	0	479	
8	0	0	0	0	624	
9	0	0	0	0	477	
10	0	0	0	0	623	
11	0	0	0	0	480	
12	0	0	0	0	622	
13	0	0	0	0	478	
14	0	0	0	0	623	
15	0	0	0	0	477	
0	0	0	0	0	623	
1	0	0	0	0	478	
2	0	0	0	0	621	
3	0	0	0	0	478	
4	0	0	0	0	625	
5	0	0	0	0	477	
6	0	0	0	0	625	
7	0	0	0	0	476	
8	0	0	0	0	620	
9	0	0	0	0	478	
10	0	0	0	0	623	
11	0	0	0	0	476	
12	0	0	0	0	626	
13	0	0	0	0	476	
14	0	0	0	0	627	
15	0	0	0	0	476	
0	0	0	0	0	628	
1	0	0	0	0	475	
2	0	0	0	0	626	
3	0	0	0	0	477	
4	0	0	0	0	627	
5	0	0	0	0	473	
6	0	0	0	0	631	
7	0	0	0	0	475	
8	0	0	0	0	629	
9	0	0	0	0	476	
10	0	0	0	0	628	
11	0	0	0	0	477	
12	0	0	0	0	629	
13	0	0	0	0	473	
14	0	0	0	0	634	
15	0	0	0	0	473	
0	0	0	0	0	633	
1	0	0	0	0	481	
2	0	0	0	0	634	
3	0	0	0	0	481	
4	0	0	0	0	651	
5	0	0	0	0	462	
6	0	0	0	0	635	
7	0	0	0	0	478	
8	0	0	0	0	635	
9	0	0	0	0	443	
10	0	0	0	0	573	
11	0	0	0	0	377	
12	0	0	0	0	721	
13	0	0	0	0	415	
14	0	0	0	0	688	
15	0	0	0	0	431	
0	0	0	0	0	604	
1	0	0	0	0	584	
2	0	0	0	0	628	
3	0	0	0	0	416	
4	0	0	0	0	612	
5	0	0	0	0	419	
6	0	0	0	0	694	
7	0	0	0	0	453	
8	0	0	0	0	653	
9	0	0	0	0	471	
10	0	0	0	0	632	
11	0	0	0	0	473	
12	0	0	0	0	647	
13	0	0	0	0	486	
14	0	0	0	0	644	
15	0	0	0	0	492	
0	0	0	0	0	692	
1	0	0	0	0	419	
2	0	0	0	0	628	
3	0	0	0	0	427	
4	0	0	0	0	651	
5	0	0	0	0	463	
6	0	0	0	0	694	
7	0	0	0	0	469	
8	0	0	0	0	718	
9	0	0	0	0	439	
10	0	0	0	0	640	
11	0	0	0	0	427	
12	0	0	0	0	644	
13	0	0	0	0	509	
14	0	0	0	0	648	
15	0	0	0	0	459	
0	0	0	0	0	675	
1	0	0	0	0	442	
2	0	0	0	0	643	
3	0	0	0	0	521	
4	0	0	0	0	657	
5	0	0	0	0	466	
6	0	0	0	0	645	
7	0	0	0	0	471	
8	0	0	0	0	642	
9	0	0	0	0	451	
10	0	0	0	0	675	
11	0	0	0	0	398	
12	0	0	0	0	639	
13	0	0	0	0	464	
14	0	0	0	0	656	
15	0	0	0	0	462	
0	0	0	0	0	660	
1	0	0	0	0	487	
2	0	0	0	0	661	
3	0	0	0	0	462	
4	0	0	0	0	669	
5	0	0	0	0	456	
6	0	0	0	0	662	
7	0	0	0	0	504	
8	0	0	0	0	629	
9	0	0	0	0	477	
10	0	0	0	0	676	
11	0	0	0	0	468	
12	0	0	0	0	635	
13	0	0	0	0	433	
14	0	0	0	0	630	
15	0	0	0	0	451	
0	0	0	0	0	687	
1	0	0	0	0	485	
2	0	0	0	0	672	
3	0	0	0	0	456	
4	0	0	0	0	667	
5	0	0	0	0	466	
6	0	0	0	0	696	
7	0	0	0	0	462	
8	0	0	0	0	690	
9	0	0	0	0	424	
10	0	0	0	0	656	
11	0	0	0	0	456	
12	0	0	0	0	674	
13	0	0	0	0	442	
14	0	0	0	0	676	
15	0	0	0	0	446	
0	0	0	0	0	669	
1	0	0	0	0	444	
2	0	0	0	0	661	
3	0	0	0	0	476	
4	0	0	0	0	706	
5	0	0	0	0	464	
6	0	0	0	0	689	
7	0	0	0	0	461	
8	0	0	0	0	678	
9	0	0	0	0	457	
10	0	0	0	0	678	
11	0	0	0	0	451	
12	0	0	0	0	679	
13	0	0	0	0	452	
14	0	0	0	0	678	
15	0	0	0	0	448	
0	0	0	0	0	673	
1	0	0	0	0	452	
2	0	0	0	0	674	
3	0	0	0	0	454	
4	0	0	0	0	679	
5	0	0	0	0	457	
6	0	0	0	0	682	
7	0	0	0	0	466	
8	0	0	0	0	680	
9	0	0	0	0	451	
10	0	0	0	0	681	
11	0	0	0	0	457	
12	0	0	0	0	684	
13	0	0	0	0	455	
14	0	0	0	0	686	
15	0	0	0	0	455	
0	0	0	0	0	682	
1	0	0	0	0	453	
2	0	0	0	0	680	
3	0	0	0	0	455	
4	0	0	0	0	686	
5	0	0	0	0	450	
6	0	0	0	0	686	
7	0	0	0	0	452	
8	0	0	0	0	687	
9	0	0	0	0	451	
10	0	0	0	0	687	
11	0	0	0	0	452	
12	0	0	0	0	685	
13	0	0	0	0	451	
14	0	0	0	0	688	
15	0	0	0	0	455	
0	0	0	0	0	687	
1	0	0	0	0	454	
2	0	0	0	0	688	
3	0	0	0	0	455	
4	0	0	0	0	685	
5	0	0	0	0	449	
6	0	0	0	0	688	
7	0	0	0	0	454	
8	0	0	0	0	688	
9	0	0	0	0	454	
10	0	0	0	0	687	
11	0	0	0	0	452	
12	0	0	0	0	687	
13	0	0	0	0	455	
14	0	0	0	0	690	
15	0	0	0	0	451	
0	0	0	0	0	691	
1	0	0	0	0	454	
2	0	0	0	0	687	
3	0	0	0	0	451	
4	0	0	0	0	687	
5	0	0	0	0	451	
6	0	0	0	0	694	
7	0	0	0	0	454	
8	0	0	0	0	692	
9	0	0	0	0	444	
10	0	0	0	0	691	
11	0	0	0	0	439	
12	0	0	0	0	689	
13	0	0	0	0	454	
14	0	0	0	0	696	
15	0	0	0	0	451	
0	0	0	0	0	690	
1	0	0	0	0	446	
2	0	0	0	0	690	
3	0	0	0	0	451	
4	0	0	0	0	693	
5	0	0	0	0	453	
6	0	0	0	0	692	
7	0	0	0	0	450	
8	0	0	0	0	684	
9	0	0	0	0	447	
10	0	0	0	0	693	
11	0	0	0	0	451	
12	0	0	0	0	695	
13	0	0	0	0	448	
14	0	0	0	0	692	
15	0	0	0	0	449	
0	0	0	0	0	691	
1	0	0	0	0	447	
2	0	0	0	0	692	
3	0	0	0	0	447	
4	0	0	0	0	697	
5	0	0	0	0	447	
6	0	0	0	0	695	
7	0	0	0	0	447	
8	0	0	0	0	695	
9	0	0	0	0	448	
10	0	0	0	0	695	
11	0	0	0	0	446	
12	0	0	0	0	694	
13	0	0	0	0	447	
14	0	0	0	0	695	
15	0	0	0	0	448	
0	0	0	0	0	695	
1	0	0	0	0	443	
2	0	0	0	0	699	
3	0	0	0	0	446	
4	0	0	0	0	699	
5	0	0	0	0	441	
6	0	0	0	0	698	
7	0	0	0	0	444	
8	0	0	0	0	697	
9	0	0	0	0	444	
10	0	0	0	0	692	
11	0	0	0	0	444	
12	0	0	0	0	711	
13	0	0	0	0	423	
14	0	0	0	0	708	
15	0	0	0	0	456	
0	0	0	0	0	676	
1	0	0	0	0	423	
2	0	0	0	0	714	
3	0	0	0	0	418	
4	0	0	0	0	707	
5	0	0	0	0	440	
6	0	0	0	0	683	
7	0	0	0	0	406	
8	0	0	0	0	700	
9	0	0	0	0	397	
10	0	0	0	0	809	
11	0	0	0	0	391	
12	0	0	0	0	716	
13	0	0	0	0	454	
14	0	0	0	0	707	
15	0	0	0	0	420	
0	0	0	0	0	674	
1	0	0	0	0	412	
2	0	0	0	0	686	
3	0	0	0	0	456	
4	0	0	0	0	721	
5	0	0	0	0	544	
6	0	0	0	0	663	
7	0	0	0	0	473	
8	0	0	0	0	639	
9	0	0	0	0	415	
10	0	0	0	0	717	
11	0	0	0	0	467	
12	0	0	0	0	707	
13	0	0	0	0	431	
14	0	0	0	0	719	
15	0	0	0	0	455	
0	0	0	0	0	714	
1	0	0	0	0	428	
2	0	0	0	0	703	
3	0	0	0	0	464	
4	0	0	0	0	697	
5	0	0	0	0	418	
6	0	0	0	0	716	
7	0	0	0	0	449	
8	0	0	0	0	738	
9	0	0	0	0	410	
10	0	0	0	0	703	
11	0	0	0	0	463	
12	0	0	0	0	707	
13	0	0	0	0	460	
14	0	0	0	0	704	
15	0	0	0	0	457	
0	0	0	0	0	724	
1	0	0	0	0	451	
2	0	0	0	0	725	
3	0	0	0	0	431	
4	0	0	0	0	695	
5	0	0	0	0	460	
6	0	0	0	0	704	
7	0	0	0	0	440	
8	0	0	0	0	728	
9	0	0	0	0	423	
10	0	0	0	0	717	
11	0	0	0	0	463	
12	0	0	0	0	696	
13	0	0	0	0	445	
14	0	0	0	0	708	
15	0	0	0	0	427	
0	0	0	0	0	694	
1	0	0	0	0	430	
2	0	0	0	0	704	
3	0	0	0	0	442	
4	0	0	0	0	702	
5	0	0	0	0	390	
6	0	0	0	0	717	
7	0	0	0	0	438	
8	0	0	0	0	703	
9	0	0	0	0	389	
10	0	0	0	0	671	
11	0	0	0	0	439	
12	0	0	0	0	734	
13	0	0	0	0	415	
14	0	0	0	0	696	
15	0	0	0	0	461	
0	0	0	0	0	681	
1	0	0	0	0	412	
2	0	0	0	0	705	
3	0	0	0	0	414	
4	0	0	0	0	696	
5	0	0	0	0	406	
6	0	0	0	0	670	
7	0	0	0	0	423	
8	0	0	0	0	681	
9	0	0	0	0	422	
10	0	0	0	0	693	
11	0	0	0	0	451	
12	0	0	0	0	694	
13	0	0	0	0	424	
14	0	0	0	0	702	
15	0	0	0	0	418	
0	0	0	0	0	727	
1	0	0	0	0	419	
2	0	0	0	0	692	
3	0	0	0	0	433	
4	0	0	0	0	696	
5	0	0	0	0	441	
6	0	0	0	0	707	
7	0	0	0	0	429	
8	0	0	0	0	688	
9	0	0	0	0	412	
10	0	0	0	0	691	
11	0	0	0	0	435	
12	0	0	0	0	697	
13	0	0	0	0	413	
14	0	0	0	0	701	
15	0	0	0	0	433	
0	0	0	0	0	694	
1	0	0	0	0	436	
2	0	0	0	0	696	
3	0	0	0	0	428	
4	0	0	0	0	696	
5	0	0	0	0	435	
6	0	0	0	0	705	
7	0	0	0	0	423	
8	0	0	0	0	694	
9	0	0	0	0	423	
10	0	0	0	0	692	
11	0	0	0	0	420	
12	0	0	0	0	694	
13	0	0	0	0	436	
14	0	0	0	0	690	
15	0	0	0	0	425	
0	0	0	0	0	708	
1	0	0	0	0	423	
2	0	0	0	0	692	
3	0	0	0	0	426	
4	0	0	0	0	689	
5	0	0	0	0	419	
6	0	0	0	0	693	
7	0	0	0	0	421	
8	0	0	0	0	691	
9	0	0	0	0	417	
10	0	0	0	0	699	
11	0	0	0	0	416	
12	0	0	0	0	691	
13	0	0	0	0	420	
14	0	0	0	0	692	
15	0	0	0	0	420	
0	0	0	0	0	690	
1	0	0	0	0	416	
2	0	0	0	0	686	
3	0	0	0	0	419	
4	0	0	0	0	687	
5	0	0	0	0	421	
6	0	0	0	0	687	
7	0	0	0	0	418	
8	0	0	0	0	688	
9	0	0	0	0	421	
10	0	0	0	0	685	
11	0	0	0	0	417	
12	0	0	0	0	686	
13	0	0	0	0	421	
14	0	0	0	0	682	
15	0	0	0	0	421	
0	0	0	0	0	683	
1	0	0	0	0	419	
2	0	0	0	0	679	
3	0	0	0	0	417	
4	0	0	0	0	681	
5	0	0	0	0	414	
6	0	0	0	0	684	
7	0	0	0	0	413	
8	0	0	0	0	684	
9	0	0	0	0	407	
10	0	0	0	0	684	
11	0	0	0	0	413	
12	0	0	0	0	695	
13	0	0	0	0	411	
14	0	0	0	0	687	
15	0	0	0	0	410	
0	0	0	0	0	684	
1	0	0	0	0	408	
2	0	0	0	0	691	
3	0	0	0	0	412	
4	0	0	0	0	684	
5	0	0	0	0	406	
6	0	0	0	0	682	
7	0	0	0	0	412	
8	0	0	0	0	686	
9	0	0	0	0	409	
10	0	0	0	0	683	
11	0	0	0	0	407	
12	0	0	0	0	681	
13	0	0	0	0	405	
14	0	0	0	0	681	
15	0	0	0	0	409	
0	0	0	0	0	680	
1	0	0	0	0	407	
2	0	0	0	0	682	
3	0	0	0	0	407	
4	0	0	0	0	678	
5	0	0	0	0	408	
6	0	0	0	0	681	
7	0	0	0	0	411	
8	0	0	0	0	679	
9	0	0	0	0	408	
10	0	0	0	0	672	
11	0	0	0	0	404	
12	0	0	0	0	676	
13	0	0	0	0	397	
14	0	0	0	0	678	
15	0	0	0	0	404	
0	0	0	0	0	675	
1	0	0	0	0	404	
2	0	0	0	0	679	
3	0	0	0	0	405	
4	0	0	0	0	674	
5	0	0	0	0	403	
6	0	0	0	0	672	
7	0	0	0	0	402	
8	0	0	0	0	673	
9	0	0	0	0	402	
10	0	0	0	0	672	
11	0	0	0	0	403	
12	0	0	0	0	667	
13	0	0	0	0	401	
14	0	0	0	0	668	
15	0	0	0	0	401	
0	0	0	0	0	674	
1	0	0	0	0	399	
2	0	0	0	0	671	
3	0	0	0	0	408	
4	0	0	0	0	671	
5	0	0	0	0	399	
6	0	0	0	0	669	
7	0	0	0	0	395	
8	0	0	0	0	672	
9	0	0	0	0	395	
10	0	0	0	0	668	
11	0	0	0	0	398	
12	0	0	0	0	670	
13	0	0	0	0	397	
14	0	0	0	0	668	
15	0	0	0	0	398	
0	0	0	0	0	666	
1	0	0	0	0	394	
2	0	0	0	0	668	
3	0	0	0	0	395	
4	0	0	0	0	670	
5	0	0	0	0	396	
6	0	0	0	0	671	
7	0	0	0	0	389	
8	0	0	0	0	665	
9	0	0	0	0	391	
10	0	0	0	0	666	
11	0	0	0	0	392	
12	0	0	0	0	665	
13	0	0	0	0	388	
14	0	0	0	0	664	
15	0	0	0	0	390	
0	0	0	0	0	665	
1	0	0	0	0	388	
2	0	0	0	0	663	
3	0	0	0	0	390	
4	0	0	0	0	666	
5	0	0	0	0	383	
6	0	0	0	0	679	
7	0	0	0	0	380	
8	0	0	0	0	683	
9	0	0	0	0	371	
10	0	0	0	0	641	
11	0	0	0	0	421	
12	0	0	0	0	667	
13	0	0	0	0	396	
14	0	0	0	0	633	
15	0	0	0	0	405	
0	0	0	0	0	698	
1	0	0	0	0	360	
2	0	0	0	0	638	
3	0	0	0	0	360	
4	0	0	0	0	718	
5	0	0	0	0	470	
6	0	0	0	0	593	
7	0	0	0	0	311	
8	0	0	0	0	722	
9	0	0	0	0	408	
10	0	0	0	0	668	
11	0	0	0	0	416	
12	0	0	0	0	620	
13	0	0	0	0	273	
14	0	0	0	0	643	
15	0	0	0	0	322	
0	0	0	0	0	793	
1	0	0	0	0	362	
2	0	0	0	0	690	
3	0	0	0	0	432	
4	0	0	0	0	647	
5	0	0	0	0	369	
6	0	0	0	0	668	
7	0	0	0	0	318	
8	0	0	0	0	660	
9	0	0	0	0	341	
10	0	0	0	0	659	
11	0	0	0	0	353	
12	0	0	0	0	688	
13	0	0	0	0	371	
14	0	0	0	0	645	
15	0	0	0	0	407	
0	0	0	0	0	641	
1	0	0	0	0	406	
2	0	0	0	0	658	
3	0	0	0	0	365	
4	0	0	0	0	654	
5	0	0	0	0	364	
6	0	0	0	0	631	
7	0	0	0	0	346	
8	0	0	0	0	644	
9	0	0	0	0	394	
10	0	0	0	0	630	
11	0	0	0	0	380	
12	0	0	0	0	624	
13	0	0	0	0	347	
14	0	0	0	0	646	
15	0	0	0	0	348	
0	0	0	0	0	651	
1	0	0	0	0	350	
2	0	0	0	0	633	
3	0	0	0	0	341	
4	0	0	0	0	688	
5	0	0	0	0	383	
6	0	0	0	0	644	
7	0	0	0	0	300	
8	0	0	0	0	589	
9	0	0	0	0	345	
10	0	0	0	0	628	
11	0	0	0	0	351	
12	0	0	0	0	636	
13	0	0	0	0	335	
14	0	0	0	0	614	
15	0	0	0	0	354	
0	0	0	0	0	647	
1	0	0	0	0	354	
2	0	0	0	0	616	
3	0	0	0	0	324	
4	0	0	0	0	647	
5	0	0	0	0	351	
6	0	0	0	0	622	
7	0	0	0	0	338	
8	0	0	0	0	604	
9	0	0	0	0	331	
10	0	0	0	0	635	
11	0	0	0	0	352	
12	0	0	0	0	653	
13	0	0	0	0	370	
14	0	0	0	0	684	
15	0	0	0	0	362	
0	0	0	0	0	615	
1	0	0	0	0	323	
2	0	0	0	0	614	
3	0	0	0	0	351	
4	0	0	0	0	631	
5	0	0	0	0	351	
6	0	0	0	0	620	
7	0	0	0	0	388	
8	0	0	0	0	618	
9	0	0	0	0	339	
10	0	0	0	0	631	
11	0	0	0	0	367	
12	0	0	0	0	621	
13	0	0	0	0	340	
14	0	0	0	0	620	
15	0	0	0	0	340	
0	0	0	0	0	615	
1	0	0	0	0	345	
2	0	0	0	0	624	
3	0	0	0	0	488	
4	0	0	0	0	607	
5	0	0	0	0	336	
6	0	0	0	0	622	
7	0	0	0	0	341	
8	0	0	0	0	619	
9	0	0	0	0	340	
10	0	0	0	0	618	
11	0	0	0	0	339	
12	0	0	0	0	609	
13	0	0	0	0	335	
14	0	0	0	0	614	
15	0	0	0	0	345	
0	0	0	0	0	613	
1	0	0	0	0	337	
2	0	0	0	0	614	
3	0	0	0	0	339	
4	0	0	0	0	613	
5	0	0	0	0	334	
6	0	0	0	0	615	
7	0	0	0	0	334	
8	0	0	0	0	610	
9	0	0	0	0	337	
10	0	0	0	0	609	
11	0	0	0	0	335	
12	0	0	0	0	606	
13	0	0	0	0	336	
14	0	0	0	0	606	
15	0	0	0	0	331	
0	0	0	0	0	608	
1	0	0	0	0	331	
2	0	0	0	0	602	
3	0	0	0	0	333	
4	0	0	0	0	601	
5	0	0	0	0	333	
6	0	0	0	0	599	
7	0	0	0	0	334	
8	0	0	0	0	598	
9	0	0	0	0	335	
10	0	0	0	0	597	
11	0	0	0	0	337	
12	0	0	0	0	599	
13	0	0	0	0	332	
14	0	0	0	0	596	
15	0	0	0	0	336	
0	0	0	0	0	592	
1	0	0	0	0	329	
2	0	0	0	0	595	
3	0	0	0	0	332	
4	0	0	0	0	585	
5	0	0	0	0	326	
6	0	0	0	0	586	
7	0	0	0	0	331	
8	0	0	0	0	588	
9	0	0	0	0	327	
10	0	0	0	0	590	
11	0	0	0	0	327	
12	0	0	0	0	587	
13	0	0	0	0	326	
14	0	0	0	0	587	
15	0	0	0	0	323	
0	0	0	0	0	581	
1	0	0	0	0	323	
2	0	0	0	0	587	
3	0	0	0	0	326	
4	0	0	0	0	583	
5	0	0	0	0	322	
6	0	0	0	0	581	
7	0	0	0	0	330	
8	0	0	0	0	579	
9	0	0	0	0	325	
10	0	0	0	0	576	
11	0	0	0	0	327	
12	0	0	0	0	573	
13	0	0	0	0	326	
14	0	0	0	0	576	
15	0	0	0	0	326	
0	0	0	0	0	575	
1	0	0	0	0	326	
2	0	0	0	0	579	
3	0	0	0	0	326	
4	0	0	0	0	572	
5	0	0	0	0	322	
6	0	0	0	0	569	
7	0	0	0	0	325	
8	0	0	0	0	571	
9	0	0	0	0	326	
10	0	0	0	0	566	
11	0	0	0	0	321	
12	0	0	0	0	567	
13	0	0	0	0	323	
14	0	0	0	0	568	
15	0	0	0	0	326	
0	0	0	0	0	568	
1	0	0	0	0	323	
2	0	0	0	0	563	
3	0	0	0	0	319	
4	0	0	0	0	564	
5	0	0	0	0	321	
6	0	0	0	0	564	
7	0	0	0	0	322	
8	0	0	0	0	561	
9	0	0	0	0	323	
10	0	0	0	0	562	
11	0	0	0	0	322	
12	0	0	0	0	562	
13	0	0	0	0	321	
14	0	0	0	0	557	
15	0	0	0	0	319	
0	0	0	0	0	557	
1	0	0	0	0	319	
2	0	0	0	0	559	
3	0	0	0	0	322	
4	0	0	0	0	556	
5	0	0	0	0	319	
6	0	0	0	0	557	
7	0	0	0	0	321	
8	0	0	0	0	558	
9	0	0	0	0	318	
10	0	0	0	0	561	
11	0	0	0	0	322	
12	0	0	0	0	539	
13	0	0	0	0	327	
14	0	0	0	0	513	
15	0	0	0	0	337	
0	0	0	0	0	557	
1	0	0	0	0	319	
2	0	0	0	0	551	
3	0	0	0	0	329	
4	0	0	0	0	551	
5	0	0	0	0	298	
6	0	0	0	0	564	
7	0	0	0	0	344	
8	0	0	0	0	503	
9	0	0	0	0	326	
10	0	0	0	0	536	
11	0	0	0	0	359	
12	0	0	0	0	532	
13	0	0	0	0	364	
14	0	0	0	0	552	
15	0	0	0	0	267	
0	0	0	0	0	559	
1	0	0	0	0	292	
2	0	0	0	0	533	
3	0	0	0	0	338	
4	0	0	0	0	517	
5	0	0	0	0	305	
6	0	0	0	0	540	
7	0	0	0	0	338	
8	0	0	0	0	542	
9	0	0	0	0	332	
10	0	0	0	0	521	
11	0	0	0	0	322	
12	0	0	0	0	553	
13	0	0	0	0	281	
14	0	0	0	0	540	
15	0	0	0	0	332	
0	0	0	0	0	553	
1	0	0	0	0	326	
2	0	0	0	0	523	
3	0	0	0	0	212	
4	0	0	0	0	591	
5	0	0	0	0	287	
6	0	0	0	0	541	
7	0	0	0	0	266	
8	0	0	0	0	564	
9	0	0	0	0	327	
10	0	0	0	0	523	
11	0	0	0	0	338	
12	0	0	0	0	641	
13	0	0	0	0	304	
14	0	0	0	0	548	
15	0	0	0	0	325	
0	0	0	0	0	516	
1	0	0	0	0	336	
2	0	0	0	0	526	
3	0	0	0	0	329	
4	0	0	0	0	593	
5	0	0	0	0	310	
6	0	0	0	0	542	
7	0	0	0	0	265	
8	0	0	0	0	520	
9	0	0	0	0	311	
10	0	0	0	0	533	
11	0	0	0	0	335	
12	0	0	0	0	531	
13	0	0	0	0	304	
14	0	0	0	0	481	
15	0	0	0	0	308	
0	0	0	0	0	546	
1	0	0	0	0	291	
2	0	0	0	0	564	
3	0	0	0	0	289	
4	0	0	0	0	534	
5	0	0	0	0	302	
6	0	0	0	0	527	
7	0	0	0	0	344	
8	0	0	0	0	562	
9	0	0	0	0	308	
10	0	0	0	0	537	
11	0	0	0	0	299	
12	0	0	0	0	528	
13	0	0	0	0	327	
14	0	0	0	0	515	
15	0	0	0	0	340	
0	0	0	0	0	555	
1	0	0	0	0	309	
2	0	0	0	0	533	
3	0	0	0	0	327	
4	0	0	0	0	527	
5	0	0	0	0	315	
6	0	0	0	0	526	
7	0	0	0	0	327	
8	0	0	0	0	511	
9	0	0	0	0	347	
10	0	0	0	0	507	
11	0	0	0	0	321	
12	0	0	0	0	541	
13	0	0	0	0	378	
14	0	0	0	0	537	
15	0	0	0	0	329	
0	0	0	0	0	542	
1	0	0	0	0	332	
2	0	0	0	0	543	
3	0	0	0	0	329	
4	0	0	0	0	540	
5	0	0	0	0	309	
6	0	0	0	0	543	
7	0	0	0	0	322	
8	0	0	0	0	524	
9	0	0	0	0	340	
10	0	0	0	0	526	
11	0	0	0	0	334	
12	0	0	0	0	568	
13	0	0	0	0	331	
14	0	0	0	0	549	
15	0	0	0	0	334	
0	0	0	0	0	528	
1	0	0	0	0	316	
2	0	0	0	0	498	
3	0	0	0	0	343	
4	0	0	0	0	540	
5	0	0	0	0	340	
6	0	0	0	0	537	
7	0	0	0	0	343	
8	0	0	0	0	538	
9	0	0	0	0	380	
10	0	0	0	0	564	
11	0	0	0	0	318	
12	0	0	0	0	532	
13	0	0	0	0	356	
14	0	0	0	0	531	
15	0	0	0	0	341	
0	0	0	0	0	530	
1	0	0	0	0	347	
2	0	0	0	0	511	
3	0	0	0	0	319	
4	0	0	0	0	530	
5	0	0	0	0	346	
6	0	0	0	0	544	
7	0	0	0	0	347	
8	0	0	0	0	536	
9	0	0	0	0	347	
10	0	0	0	0	536	
11	0	0	0	0	344	
12	0	0	0	0	535	
13	0	0	0	0	338	
14	0	0	0	0	555	
15	0	0	0	0	351	
0	0	0	0	0	535	
1	0	0	0	0	349	
2	0	0	0	0	536	
3	0	0	0	0	356	
4	0	0	0	0	531	
5	0	0	0	0	355	
6	0	0	0	0	531	
7	0	0	0	0	354	
8	0	0	0	0	535	
9	0	0	0	0	355	
10	0	0	0	0	536	
11	0	0	0	0	356	
12	0	0	0	0	535	
13	0	0	0	0	355	
14	0	0	0	0	531	
15	0	0	0	0	357	
0	0	0	0	0	533	
1	0	0	0	0	360	
2	0	0	0	0	534	
3	0	0	0	0	359	
4	0	0	0	0	529	
5	0	0	0	0	359	
6	0	0	0	0	531	
7	0	0	0	0	368	
8	0	0	0	0	535	
9	0	0	0	0	360	
10	0	0	0	0	539	
11	0	0	0	0	370	
12	0	0	0	0	537	
13	0	0	0	0	364	
14	0	0	0	0	536	
15	0	0	0	0	368	
0	0	0	0	0	539	
1	0	0	0	0	361	
2	0	0	0	0	542	
3	0	0	0	0	362	
4	0	0	0	0	540	
5	0	0	0	0	369	
6	0	0	0	0	533	
7	0	0	0	0	377	
8	0	0	0	0	527	
9	0	0	0	0	371	
10	0	0	0	0	532	
11	0	0	0	0	382	
12	0	0	0	0	540	
13	0	0	0	0	373	
14	0	0	0	0	536	
15	0	0	0	0	368	
0	0	0	0	0	534	
1	0	0	0	0	379	
2	0	0	0	0	534	
3	0	0	0	0	379	
4	0	0	0	0	521	
5	0	0	0	0	381	
6	0	0	0	0	530	
7	0	0	0	0	381	
8	0	0	0	0	528	
9	0	0	0	0	379	
10	0	0	0	0	530	
11	0	0	0	0	382	
12	0	0	0	0	530	
13	0	0	0	0	382	
14	0	0	0	0	528	
15	0	0	0	0	382	
0	0	0	0	0	531	
1	0	0	0	0	385	
2	0	0	0	0	532	
3	0	0	0	0	383	
4	0	0	0	0	530	
5	0	0	0	0	393	
6	0	0	0	0	522	
7	0	0	0	0	385	
8	0	0	0	0	529	
9	0	0	0	0	393	
10	0	0	0	0	527	
11	0	0	0	0	390	
12	0	0	0	0	525	
13	0	0	0	0	393	
14	0	0	0	0	527	
15	0	0	0	0	401	
0	0	0	0	0	533	
1	0	0	0	0	392	
2	0	0	0	0	529	
3	0	0	0	0	393	
4	0	0	0	0	528	
5	0	0	0	0	398	
6	0	0	0	0	527	
7	0	0	0	0	395	
8	0	0	0	0	527	
9	0	0	0	0	401	
10	0	0	0	0	528	
11	0	0	0	0	394	
12	0	0	0	0	527	
13	0	0	0	0	397	
14	0	0	0	0	524	
15	0	0	0	0	403	
0	0	0	0	0	525	
1	0	0	0	0	401	
2	0	0	0	0	525	
3	0	0	0	0	399	
4	0	0	0	0	531	
5	0	0	0	0	401	
6	0	0	0	0	527	
7	0	0	0	0	408	
8	0	0	0	0	524	
9	0	0	0	0	401	
10	0	0	0	0	520	
11	0	0	0	0	408	
12	0	0	0	0	527	
13	0	0	0	0	411	
14	0	0	0	0	525	
15	0	0	0	0	411	
0	0	0	0	0	527	
1	0	0	0	0	408	
2	0	0	0	0	527	
3	0	0	0	0	411	
4	0	0	0	0	528	
5	0	0	0	0	414	
6	0	0	0	0	529	
7	0	0	0	0	414	
8	0	0	0	0	526	
9	0	0	0	0	419	
10	0	0	0	0	515	
11	0	0	0	0	419	
12	0	0	0	0	519	
13	0	0	0	0	442	
14	0	0	0	0	520	
15	0	0	0	0	404	
0	0	0	0	0	521	
1	0	0	0	0	455	
2	0	0	0	0	553	
3	0	0	0	0	445	
4	0	0	0	0	554	
5	0	0	0	0	412	
6	0	0	0	0	537	
7	0	0	0	0	423	
8	0	0	0	0	486	
9	0	0	0	0	419	
10	0	0	0	0	530	
11	0	0	0	0	412	
12	0	0	0	0	488	
13	0	0	0	0	457	
14	0	0	0	0	492	
15	0	0	0	0	395	
0	0	0	0	0	502	
1	0	0	0	0	321	
2	0	0	0	0	491	
3	0	0	0	0	445	
4	0	0	0	0	553	
5	0	0	0	0	425	
6	0	0	0	0	502	
7	0	0	0	0	424	
8	0	0	0	0	512	
9	0	0	0	0	507	
10	0	0	0	0	511	
11	0	0	0	0	431	
12	0	0	0	0	527	
13	0	0	0	0	428	
14	0	0	0	0	534	
15	0	0	0	0	432	
0	0	0	0	0	522	
1	0	0	0	0	429	
2	0	0	0	0	514	
3	0	0	0	0	426	
4	0	0	0	0	518	
5	0	0	0	0	444	
6	0	0	0	0	523	
7	0	0	0	0	435	
8	0	0	0	0	507	
9	0	0	0	0	409	
10	0	0	0	0	523	
11	0	0	0	0	432	
12	0	0	0	0	580	
13	0	0	0	0	428	
14	0	0	0	0	521	
15	0	0	0	0	457	
0	0	0	0	0	511	
1	0	0	0	0	436	
2	0	0	0	0	543	
3	0	0	0	0	419	
4	0	0	0	0	505	
5	0	0	0	0	437	
6	0	0	0	0	499	
7	0	0	0	0	481	
8	0	0	0	0	533	
9	0	0	0	0	468	
10	0	0	0	0	511	
11	0	0	0	0	449	
12	0	0	0	0	495	
13	0	0	0	0	470	
14	0	0	0	0	518	
15	0	0	0	0	463	
0	0	0	0	0	529	
1	0	0	0	0	475	
2	0	0	0	0	528	
3	0	0	0	0	485	
4	0	0	0	0	498	
5	0	0	0	0	483	
6	0	0	0	0	499	
7	0	0	0	0	478	
8	0	0	0	0	513	
9	0	0	0	0	450	
10	0	0	0	0	512	
11	0	0	0	0	426	
12	0	0	0	0	527	
13	0	0	0	0	446	
14	0	0	0	0	512	
15	0	0	0	0	465	
0	0	0	0	0	539	
1	0	0	0	0	458	
2	0	0	0	0	557	
3	0	0	0	0	464	
4	0	0	0	0	492	
5	0	0	0	0	439	
6	0	0	0	0	510	
7	0	0	0	0	451	
8	0	0	0	0	505	
9	0	0	0	0	460	
10	0	0	0	0	506	
11	0	0	0	0	505	
12	0	0	0	0	500	
13	0	0	0	0	485	
14	0	0	0	0	523	
15	0	0	0	0	464	
0	0	0	0	0	511	
1	0	0	0	0	477	
2	0	0	0	0	494	
3	0	0	0	0	512	
4	0	0	0	0	514	
5	0	0	0	0	475	
6	0	0	0	0	538	
7	0	0	0	0	488	
8	0	0	0	0	531	
9	0	0	0	0	477	
10	0	0	0	0	499	
11	0	0	0	0	509	
12	0	0	0	0	514	
13	0	0	0	0	480	
14	0	0	0	0	514	
15	0	0	0	0	489	
0	0	0	0	0	517	
1	0	0	0	0	483	
2	0	0	0	0	511	
3	0	0	0	0	468	
4	0	0	0	0	516	
5	0	0	0	0	499	
6	0	0	0	0	511	
7	0	0	0	0	487	
8	0	0	0	0	506	
9	0	0	0	0	489	
10	0	0	0	0	510	
11	0	0	0	0	490	
12	0	0	0	0	506	
13	0	0	0	0	487	
14	0	0	0	0	508	
15	0	0	0	0	506	
0	0	0	0	0	511	
1	0	0	0	0	496	
2	0	0	0	0	510	
3	0	0	0	0	499	
4	0	0	0	0	510	
5	0	0	0	0	500	
6	0	0	0	0	513	
7	0	0	0	0	496	
8	0	0	0	0	510	
9	0	0	0	0	502	
10	0	0	0	0	513	
11	0	0	0	0	508	
12	0	0	0	0	511	
13	0	0	0	0	491	
14	0	0	0	0	513	
15	0	0	0	0	507	
0	0	0	0	0	511	
1	0	0	0	0	507	
2	0	0	0	0	511	
3	0	0	0	0	508	
4	0	0	0	0	502	
5	0	0	0	0	530	
6	0	0	0	0	503	
7	0	0	0	0	511	
8	0	0	0	0	507	
9	0	0	0	0	512	
10	0	0	0	0	511	
11	0	0	0	0	511	
12	0	0	0	0	509	
13	0	0	0	0	514	
14	0	0	0	0	506	
15	0	0	0	0	516	
0	0	0	0	0	509	
1	0	0	0	0	518	
2	0	0	0	0	510	
3	0	0	0	0	518	
4	0	0	0	0	509	
5	0	0	0	0	517	
6	0	0	0	0	505	
7	0	0	0	0	517	
8	0	0	0	0	509	
9	0	0	0	0	519	
10	0	0	0	0	505	
11	0	0	0	0	518	
12	0	0	0	0	504	
13	0	0	0	0	524	
14	0	0	0	0	514	
15	0	0	0	0	528	
0	0	0	0	0	511	
1	0	0	0	0	527	
2	0	0	0	0	509	
3	0	0	0	0	523	
4	0	0	0	0	507	
5	0	0	0	0	524	
6	0	0	0	0	505	
7	0	0	0	0	524	
8	0	0	0	0	501	
9	0	0	0	0	529	
10	0	0	0	0	507	
11	0	0	0	0	531	
12	0	0	0	0	502	
13	0	0	0	0	530	
14	0	0	0	0	509	
15	0	0	0	0	537	
0	0	0	0	0	508	
1	0	0	0	0	536	
2	0	0	0	0	502	
3	0	0	0	0	531	
4	0	0	0	0	503	
5	0	0	0	0	537	
6	0	0	0	0	503	
7	0	0	0	0	540	
8	0	0	0	0	501	
9	0	0	0	0	542	
10	0	0	0	0	503	
11	0	0	0	0	536	
12	0	0	0	0	506	
13	0	0	0	0	540	
14	0	0	0	0	501	
15	0	0	0	0	541	
0	0	0	0	0	503	
1	0	0	0	0	542	
2	0	0	0	0	504	
3	0	0	0	0	547	
4	0	0	0	0	507	
5	0	0	0	0	545	
6	0	0	0	0	504	
7	0	0	0	0	546	
8	0	0	0	0	500	
9	0	0	0	0	546	
10	0	0	0	0	503	
11	0	0	0	0	548	
12	0	0	0	0	501	
13	0	0	0	0	548	
14	0	0	0	0	503	
15	0	0	0	0	547	
0	0	0	0	0	502	
1	0	0	0	0	550	
2	0	0	0	0	502	
3	0	0	0	0	552	
4	0	0	0	0	497	
5	0	0	0	0	553	
6	0	0	0	0	499	
7	0	0	0	0	555	
8	0	0	0	0	498	
9	0	0	0	0	553	
10	0	0	0	0	501	
11	0	0	0	0	556	
12	0	0	0	0	500	
13	0	0	0	0	556	
14	0	0	0	0	503	
15	0	0	0	0	556	
0	0	0	0	0	501	
1	0	0	0	0	557	
2	0	0	0	0	500	
3	0	0	0	0	558	
4	0	0	0	0	498	
5	0	0	0	0	558	
6	0	0	0	0	500	
7	0	0	0	0	560	
8	0	0	0	0	498	
9	0	0	0	0	561	
10	0	0	0	0	497	
11	0	0	0	0	562	
12	0	0	0	0	500	
13	0	0	0	0	561	
14	0	0	0	0	504	
15	0	0	0	0	569	
0	0	0	0	0	516	
1	0	0	0	0	558	
2	0	0	0	0	494	
3	0	0	0	0	556	
4	0	0	0	0	488	
5	0	0	0	0	577	
6	0	0	0	0	499	
7	0	0	0	0	586	
8	0	0	0	0	509	
9	0	0	0	0	614	
10	0	0	0	0	493	
11	0	0	0	0	551	
12	0	0	0	0	520	
13	0	0	0	0	529	
14	0	0	0	0	469	
15	0	0	0	0	593	
0	0	0	0	0	534	
1	0	0	0	0	541	
2	0	0	0	0	472	
3	0	0	0	0	555	
4	0	0	0	0	482	
5	0	0	0	0	608	
6	0	0	0	0	518	
7	0	0	0	0	625	
8	0	0	0	0	515	
9	0	0	0	0	635	
10	0	0	0	0	588	
11	0	0	0	0	499	
12	0	0	0	0	491	
13	0	0	0	0	560	
14	0	0	0	0	476	
15	0	0	0	0	565	
0	0	0	0	0	505	
1	0	0	0	0	612	
2	0	0	0	0	528	
3	0	0	0	0	572	
4	0	0	0	0	490	
5	0	0	0	0	558	
6	0	0	0	0	438	
7	0	0	0	0	521	
8	0	0	0	0	464	
9	0	0	0	0	575	
10	0	0	0	0	499	
11	0	0	0	0	611	
12	0	0	0	0	474	
13	0	0	0	0	594	
14	0	0	0	0	472	
15	0	0	0	0	684	
0	0	0	0	0	493	
1	0	0	0	0	606	
2	0	0	0	0	467	
3	0	0	0	0	567	
4	0	0	0	0	512	
5	0	0	0	0	600	
6	0	0	0	0	480	
7	0	0	0	0	566	
8	0	0	0	0	494	
9	0	0	0	0	585	
10	0	0	0	0	469	
11	0	0	0	0	564	
12	0	0	0	0	527	
13	0	0	0	0	580	
14	0	0	0	0	492	
15	0	0	0	0	534	
0	0	0	0	0	419	
1	0	0	0	0	570	
2	0	0	0	0	466	
3	0	0	0	0	592	
4	0	0	0	0	498	
5	0	0	0	0	618	
6	0	0	0	0	466	
7	0	0	0	0	596	
8	0	0	0	0	476	
9	0	0	0	0	596	
10	0	0	0	0	451	
11	0	0	0	0	563	
12	0	0	0	0	510	
13	0	0	0	0	618	
14	0	0	0	0	473	
15	0	0	0	0	537	
0	0	0	0	0	517	
1	0	0	0	0	668	
2	0	0	0	0	492	
3	0	0	0	0	567	
4	0	0	0	0	496	
5	0	0	0	0	605	
6	0	0	0	0	407	
7	0	0	0	0	574	
8	0	0	0	0	482	
9	0	0	0	0	632	
10	0	0	0	0	467	
11	0	0	0	0	610	
12	0	0	0	0	480	
13	0	0	0	0	665	
14	0	0	0	0	563	
15	0	0	0	0	547	
0	0	0	0	0	490	
1	0	0	0	0	594	
2	0	0	0	0	435	
3	0	0	0	0	612	
4	0	0	0	0	496	
5	0	0	0	0	587	
6	0	0	0	0	514	
7	0	0	0	0	595	
8	0	0	0	0	483	
9	0	0	0	0	578	
10	0	0	0	0	485	
11	0	0	0	0	638	
12	0	0	0	0	503	
13	0	0	0	0	605	
14	0	0	0	0	485	
15	0	0	0	0	606	
0	0	0	0	0	478	
1	0	0	0	0	606	
2	0	0	0	0	652	
3	0	0	0	0	585	
4	0	0	0	0	479	
5	0	0	0	0	611	
6	0	0	0	0	488	
7	0	0	0	0	613	
8	0	0	0	0	480	
9	0	0	0	0	613	
10	0	0	0	0	487	
11	0	0	0	0	618	
12	0	0	0	0	465	
13	0	0	0	0	547	
14	0	0	0	0	453	
15	0	0	0	0	607	
0	0	0	0	0	478	
1	0	0	0	0	623	
2	0	0	0	0	480	
3	0	0	0	0	621	
4	0	0	0	0	481	
5	0	0	0	0	601	
6	0	0	0	0	476	
7	0	0	0	0	617	
8	0	0	0	0	479	
9	0	0	0	0	649	
10	0	0	0	0	471	
11	0	0	0	0	622	
12	0	0	0	0	478	
13	0	0	0	0	623	
14	0	0	0	0	478	
15	0	0	0	0	623	
0	0	0	0	0	478	
1	0	0	0	0	619	
2	0	0	0	0	478	
3	0	0	0	0	623	
4	0	0	0	0	476	
5	0	0	0	0	624	
6	0	0	0	0	479	
7	0	0	0	0	622	
8	0	0	0	0	476	
9	0	0	0	0	619	
10	0	0	0	0	479	
11	0	0	0	0	621	
12	0	0	0	0	481	
13	0	0	0	0	626	
14	0	0	0	0	476	
15	0	0	0	0	623	
0	0	0	0	0	476	
1	0	0	0	0	620	
2	0	0	0	0	483	
3	0	0	0	0	622	
4	0	0	0	0	476	
5	0	0	0	0	623	
6	0	0	0	0	475	
7	0	0	0	0	622	
8	0	0	0	0	480	
9	0	0	0	0	622	
10	0	0	0	0	479	
11	0	0	0	0	625	
12	0	0	0	0	479	
13	0	0	0	0	622	
14	0	0	0	0	477	
15	0	0	0	0	634	
0	0	0	0	0	479	
1	0	0	0	0	632	
2	0	0	0	0	465	
3	0	0	0	0	622	
4	0	0	0	0	486	
5	0	0	0	0	634	
6	0	0	0	0	460	
7	0	0	0	0	595	
8	0	0	0	0	464	
9	0	0	0	0	561	
10	0	0	0	0	463	
11	0	0	0	0	642	
12	0	0	0	0	468	
13	0	0	0	0	591	
14	0	0	0	0	509	
15	0	0	0	0	622	
0	0	0	0	0	466	
1	0	0	0	0	620	
2	0	0	0	0	474	
3	0	0	0	0	649	
4	0	0	0	0	476	
5	0	0	0	0	642	
6	0	0	0	0	463	
7	0	0	0	0	633	
8	0	0	0	0	473	
9	0	0	0	0	640	
10	0	0	0	0	471	
11	0	0	0	0	636	
12	0	0	0	0	468	
13	0	0	0	0	639	
14	0	0	0	0	470	
15	0	0	0	0	641	
0	0	0	0	0	470	
1	0	0	0	0	640	
2	0	0	0	0	470	
3	0	0	0	0	640	
4	0	0	0	0	468	
5	0	0	0	0	637	
6	0	0	0	0	472	
7	0	0	0	0	643	
8	0	0	0	0	472	
9	0	0	0	0	642	
10	0	0	0	0	472	
11	0	0	0	0	644	
12	0	0	0	0	471	
13	0	0	0	0	642	
14	0	0	0	0	468	
15	0	0	0	0	644	
0	0	0	0	0	470	
1	0	0	0	0	643	
2	0	0	0	0	467	
3	0	0	0	0	643	
4	0	0	0	0	467	
5	0	0	0	0	645	
6	0	0	0	0	467	
7	0	0	0	0	647	
8	0	0	0	0	466	
9	0	0	0	0	647	
10	0	0	0	0	467	
11	0	0	0	0	646	
12	0	0	0	0	462	
13	0	0	0	0	649	
14	0	0	0	0	464	
15	0	0	0	0	654	
0	0	0	0	0	465	
1	0	0	0	0	651	
2	0	0	0	0	463	
3	0	0	0	0	651	
4	0	0	0	0	464	
5	0	0	0	0	653	
6	0	0	0	0	464	
7	0	0	0	0	655	
8	0	0	0	0	462	
9	0	0	0	0	655	
10	0	0	0	0	463	
11	0	0	0	0	654	
12	0	0	0	0	466	
13	0	0	0	0	656	
14	0	0	0	0	462	
15	0	0	0	0	658	
0	0	0	0	0	454	
1	0	0	0	0	663	
2	0	0	0	0	467	
3	0	0	0	0	659	
4	0	0	0	0	464	
5	0	0	0	0	658	
6	0	0	0	0	463	
7	0	0	0	0	662	
8	0	0	0	0	462	
9	0	0	0	0	662	
10	0	0	0	0	465	
11	0	0	0	0	660	
12	0	0	0	0	462	
13	0	0	0	0	659	
14	0	0	0	0	458	
15	0	0	0	0	662	
0	0	0	0	0	467	
1	0	0	0	0	662	
2	0	0	0	0	462	
3	0	0	0	0	664	
4	0	0	0	0	463	
5	0	0	0	0	664	
6	0	0	0	0	463	
7	0	0	0	0	664	
8	0	0	0	0	462	
9	0	0	0	0	666	
10	0	0	0	0	460	
11	0	0	0	0	665	
12	0	0	0	0	457	
13	0	0	0	0	660	
14	0	0	0	0	460	
15	0	0	0	0	664	
0	0	0	0	0	461	
1	0	0	0	0	664	
2	0	0	0	0	460	
3	0	0	0	0	667	
4	0	0	0	0	459	
5	0	0	0	0	666	
6	0	0	0	0	461	
7	0	0	0	0	664	
8	0	0	0	0	457	
9	0	0	0	0	668	
10	0	0	0	0	459	
11	0	0	0	0	669	
12	0	0	0	0	458	
13	0	0	0	0	670	
14	0	0	0	0	461	
15	0	0	0	0	669	
0	0	0	0	0	460	
1	0	0	0	0	667	
2	0	0	0	0	459	
3	0	0	0	0	670	
4	0	0	0	0	456	
5	0	0	0	0	669	
6	0	0	0	0	458	
7	0	0	0	0	672	
8	0	0	0	0	459	
9	0	0	0	0	672	
10	0	0	0	0	457	
11	0	0	0	0	673	
12	0	0	0	0	460	
13	0	0	0	0	670	
14	0	0	0	0	457	
15	0	0	0	0	664	
0	0	0	0	0	460	
1	0	0	0	0	674	
2	0	0	0	0	456	
3	0	0	0	0	667	
4	0	0	0	0	457	
5	0	0	0	0	677	
6	0	0	0	0	458	
7	0	0	0	0	673	
8	0	0	0	0	460	
9	0	0	0	0	678	
